     R_cyl [km]         z [km]        T [MeV]
    5.00000E-01    1.85141E+01    3.04836E+00
    1.50000E+00    1.84256E+01    3.10374E+00
    2.50000E+00    1.83541E+01    3.16002E+00
    3.50000E+00    1.83112E+01    3.18125E+00
    4.50000E+00    1.82740E+01    3.18411E+00
    5.50000E+00    1.82181E+01    3.18791E+00
    6.50000E+00    1.81398E+01    3.18284E+00
    7.50000E+00    1.79553E+01    3.24285E+00
    8.50000E+00    1.76986E+01    3.29871E+00
    9.50000E+00    1.76204E+01    3.17881E+00
    1.05000E+01    1.74413E+01    3.13069E+00
    1.15000E+01    1.72046E+01    3.14045E+00
    1.25000E+01    1.67933E+01    3.21674E+00
    1.35000E+01    1.65211E+01    3.11702E+00
    1.45000E+01    1.58186E+01    3.44495E+00
    1.55000E+01    1.57621E+01    3.14329E+00
    1.65000E+01    1.53865E+01    3.09098E+00
    1.75000E+01    1.48606E+01    3.14808E+00
    1.85000E+01    1.45170E+01    3.00246E+00
    1.95000E+01    1.39760E+01    3.04258E+00
    2.05000E+01    1.33989E+01    3.01587E+00
    2.15000E+01    1.27623E+01    3.03511E+00
    2.25000E+01    1.22615E+01    2.95450E+00
    2.35000E+01    1.16573E+01    2.92014E+00
    2.45000E+01    1.11591E+01    2.86670E+00
    2.55000E+01    1.06083E+01    2.83598E+00
    2.65000E+01    1.01788E+01    2.68136E+00
    2.75000E+01    9.50248E+00    2.62215E+00
    2.85000E+01    9.39572E+00    3.24088E+00
    2.95000E+01    9.61682E+00    3.96650E+00
    3.05000E+01    9.94657E+00    4.19739E+00
    3.15000E+01    1.03781E+01    4.28853E+00
    3.25000E+01    1.08950E+01    4.27360E+00
    3.35000E+01    1.13916E+01    4.20510E+00
    3.45000E+01    1.18934E+01    4.12805E+00
    3.55000E+01    1.23661E+01    4.05614E+00
    3.65000E+01    1.28422E+01    3.98107E+00
    3.75000E+01    1.32941E+01    3.90891E+00
    3.85000E+01    1.37406E+01    3.83082E+00
    3.95000E+01    1.41758E+01    3.75246E+00
    4.05000E+01    1.45801E+01    3.67941E+00
    4.15000E+01    1.49902E+01    3.60952E+00
    4.25000E+01    1.53718E+01    3.53787E+00
    4.35000E+01    1.57539E+01    3.46861E+00
    4.45000E+01    1.61189E+01    3.40114E+00
    4.55000E+01    1.64576E+01    3.33601E+00
    4.65000E+01    1.67992E+01    3.27367E+00
    4.75000E+01    1.71167E+01    3.21280E+00
    4.85000E+01    1.74072E+01    3.15490E+00
    4.95000E+01    1.76897E+01    3.09833E+00
    5.05000E+01    1.79553E+01    3.03987E+00
    5.15000E+01    1.81978E+01    2.98062E+00
    5.25000E+01    1.84267E+01    2.92218E+00
    5.35000E+01    1.86579E+01    2.86743E+00
    5.45000E+01    1.88740E+01    2.82019E+00
    5.55000E+01    1.90663E+01    2.77530E+00
    5.65000E+01    1.92411E+01    2.73415E+00
    5.75000E+01    1.94040E+01    2.69726E+00
    5.85000E+01    1.95566E+01    2.66244E+00
    5.95000E+01    1.96995E+01    2.62902E+00
    6.05000E+01    1.98241E+01    2.59648E+00
    6.15000E+01    1.99331E+01    2.56529E+00
    6.25000E+01    2.00267E+01    2.53584E+00
    6.35000E+01    2.01043E+01    2.50766E+00
    6.45000E+01    2.01670E+01    2.48064E+00
    6.55000E+01    2.02155E+01    2.45488E+00
    6.65000E+01    2.02502E+01    2.42991E+00
    6.75000E+01    2.02714E+01    2.40561E+00
    6.85000E+01    2.02797E+01    2.38205E+00
    6.95000E+01    2.02743E+01    2.35977E+00
    7.05000E+01    2.02562E+01    2.33930E+00
    7.15000E+01    2.02240E+01    2.32018E+00
    7.25000E+01    2.01775E+01    2.30210E+00
    7.35000E+01    2.01151E+01    2.28425E+00
    7.45000E+01    2.00356E+01    2.26658E+00
    7.55000E+01    1.99407E+01    2.25002E+00
    7.65000E+01    1.98274E+01    2.23406E+00
    7.75000E+01    1.96976E+01    2.21897E+00
    7.85000E+01    1.95501E+01    2.20448E+00
    7.95000E+01    1.93901E+01    2.19116E+00
    8.05000E+01    1.92155E+01    2.17881E+00
    8.15000E+01    1.90195E+01    2.16702E+00
    8.25000E+01    1.88042E+01    2.15589E+00
    8.35000E+01    1.85680E+01    2.14530E+00
    8.45000E+01    1.83189E+01    2.13552E+00
    8.55000E+01    1.80507E+01    2.12631E+00
    8.65000E+01    1.77578E+01    2.11755E+00
    8.75000E+01    1.74427E+01    2.10935E+00
    8.85000E+01    1.71112E+01    2.10159E+00
    8.95000E+01    1.67509E+01    2.09420E+00
    9.05000E+01    1.63645E+01    2.08690E+00
    9.15000E+01    1.59560E+01    2.07945E+00
    9.25000E+01    1.55158E+01    2.07223E+00
    9.35000E+01    1.50553E+01    2.06568E+00
    9.45000E+01    1.45601E+01    2.05936E+00
    9.55000E+01    1.40433E+01    2.05353E+00
    9.65000E+01    1.34936E+01    2.04813E+00
    9.75000E+01    1.29176E+01    2.04291E+00
    9.85000E+01    1.23055E+01    2.03803E+00
    9.95000E+01    1.16592E+01    2.03355E+00
    1.00500E+02    1.09827E+01    2.02932E+00
    1.01500E+02    1.01733E+01    2.02584E+00
    1.02500E+02    8.86492E+00    2.02409E+00
    1.03500E+02    7.31721E+00    2.02254E+00
    1.04500E+02    5.59902E+00    2.02050E+00
    1.05500E+02    3.67071E+00    2.01748E+00
    1.06500E+02    0.00000E+00    0.00000E+00
    1.07500E+02    0.00000E+00    0.00000E+00
    1.08500E+02    0.00000E+00    0.00000E+00
    1.09500E+02    0.00000E+00    0.00000E+00
    1.10500E+02    0.00000E+00    0.00000E+00
    1.11500E+02    0.00000E+00    0.00000E+00
    1.12500E+02    0.00000E+00    0.00000E+00
    1.13500E+02    0.00000E+00    0.00000E+00
    1.14500E+02    0.00000E+00    0.00000E+00
    1.15500E+02    0.00000E+00    0.00000E+00
    1.16500E+02    0.00000E+00    0.00000E+00
    1.17500E+02    0.00000E+00    0.00000E+00
    1.18500E+02    0.00000E+00    0.00000E+00
    1.19500E+02    0.00000E+00    0.00000E+00
    1.20500E+02    0.00000E+00    0.00000E+00
    1.21500E+02    0.00000E+00    0.00000E+00
    1.22500E+02    0.00000E+00    0.00000E+00
    1.23500E+02    0.00000E+00    0.00000E+00
    1.24500E+02    0.00000E+00    0.00000E+00
    1.25500E+02    0.00000E+00    0.00000E+00
    1.26500E+02    0.00000E+00    0.00000E+00
    1.27500E+02    0.00000E+00    0.00000E+00
    1.28500E+02    0.00000E+00    0.00000E+00
    1.29500E+02    0.00000E+00    0.00000E+00
    1.30500E+02    0.00000E+00    0.00000E+00
    1.31500E+02    0.00000E+00    0.00000E+00
    1.32500E+02    0.00000E+00    0.00000E+00
    1.33500E+02    0.00000E+00    0.00000E+00
    1.34500E+02    0.00000E+00    0.00000E+00
    1.35500E+02    0.00000E+00    0.00000E+00
    1.36500E+02    0.00000E+00    0.00000E+00
    1.37500E+02    0.00000E+00    0.00000E+00
    1.38500E+02    0.00000E+00    0.00000E+00
    1.39500E+02    0.00000E+00    0.00000E+00
    1.40500E+02    0.00000E+00    0.00000E+00
    1.41500E+02    0.00000E+00    0.00000E+00
    1.42500E+02    0.00000E+00    0.00000E+00
    1.43500E+02    0.00000E+00    0.00000E+00
    1.44500E+02    0.00000E+00    0.00000E+00
    1.45500E+02    0.00000E+00    0.00000E+00
    1.46500E+02    0.00000E+00    0.00000E+00
    1.47500E+02    0.00000E+00    0.00000E+00
    1.48500E+02    0.00000E+00    0.00000E+00
    1.49500E+02    0.00000E+00    0.00000E+00
    1.50500E+02    0.00000E+00    0.00000E+00
    1.51500E+02    0.00000E+00    0.00000E+00
    1.52500E+02    0.00000E+00    0.00000E+00
    1.53500E+02    0.00000E+00    0.00000E+00
    1.54500E+02    0.00000E+00    0.00000E+00
    1.55500E+02    0.00000E+00    0.00000E+00
    1.56500E+02    0.00000E+00    0.00000E+00
    1.57500E+02    0.00000E+00    0.00000E+00
    1.58500E+02    0.00000E+00    0.00000E+00
    1.59500E+02    0.00000E+00    0.00000E+00
    1.60500E+02    0.00000E+00    0.00000E+00
    1.61500E+02    0.00000E+00    0.00000E+00
    1.62500E+02    0.00000E+00    0.00000E+00
    1.63500E+02    0.00000E+00    0.00000E+00
    1.64500E+02    0.00000E+00    0.00000E+00
    1.65500E+02    0.00000E+00    0.00000E+00
    1.66500E+02    0.00000E+00    0.00000E+00
    1.67500E+02    0.00000E+00    0.00000E+00
    1.68500E+02    0.00000E+00    0.00000E+00
    1.69500E+02    0.00000E+00    0.00000E+00
    1.70500E+02    0.00000E+00    0.00000E+00
    1.71500E+02    0.00000E+00    0.00000E+00
    1.72500E+02    0.00000E+00    0.00000E+00
    1.73500E+02    0.00000E+00    0.00000E+00
    1.74500E+02    0.00000E+00    0.00000E+00
    1.75500E+02    0.00000E+00    0.00000E+00
    1.76500E+02    0.00000E+00    0.00000E+00
    1.77500E+02    0.00000E+00    0.00000E+00
    1.78500E+02    0.00000E+00    0.00000E+00
    1.79500E+02    0.00000E+00    0.00000E+00
    1.80500E+02    0.00000E+00    0.00000E+00
    1.81500E+02    0.00000E+00    0.00000E+00
    1.82500E+02    0.00000E+00    0.00000E+00
    1.83500E+02    0.00000E+00    0.00000E+00
    1.84500E+02    0.00000E+00    0.00000E+00
    1.85500E+02    0.00000E+00    0.00000E+00
    1.86500E+02    0.00000E+00    0.00000E+00
    1.87500E+02    0.00000E+00    0.00000E+00
    1.88500E+02    0.00000E+00    0.00000E+00
    1.89500E+02    0.00000E+00    0.00000E+00
    1.90500E+02    0.00000E+00    0.00000E+00
    1.91500E+02    0.00000E+00    0.00000E+00
    1.92500E+02    0.00000E+00    0.00000E+00
    1.93500E+02    0.00000E+00    0.00000E+00
    1.94500E+02    0.00000E+00    0.00000E+00
    1.95500E+02    0.00000E+00    0.00000E+00
    1.96500E+02    0.00000E+00    0.00000E+00
    1.97500E+02    0.00000E+00    0.00000E+00
    1.98500E+02    0.00000E+00    0.00000E+00
    1.99500E+02    0.00000E+00    0.00000E+00
    2.00500E+02    0.00000E+00    0.00000E+00
    2.01500E+02    0.00000E+00    0.00000E+00
    2.02500E+02    0.00000E+00    0.00000E+00
    2.03500E+02    0.00000E+00    0.00000E+00
    2.04500E+02    0.00000E+00    0.00000E+00
    2.05500E+02    0.00000E+00    0.00000E+00
    2.06500E+02    0.00000E+00    0.00000E+00
    2.07500E+02    0.00000E+00    0.00000E+00
    2.08500E+02    0.00000E+00    0.00000E+00
    2.09500E+02    0.00000E+00    0.00000E+00
    2.10500E+02    0.00000E+00    0.00000E+00
    2.11500E+02    0.00000E+00    0.00000E+00
    2.12500E+02    0.00000E+00    0.00000E+00
    2.13500E+02    0.00000E+00    0.00000E+00
    2.14500E+02    0.00000E+00    0.00000E+00
    2.15500E+02    0.00000E+00    0.00000E+00
    2.16500E+02    0.00000E+00    0.00000E+00
    2.17500E+02    0.00000E+00    0.00000E+00
    2.18500E+02    0.00000E+00    0.00000E+00
    2.19500E+02    0.00000E+00    0.00000E+00
    2.20500E+02    0.00000E+00    0.00000E+00
    2.21500E+02    0.00000E+00    0.00000E+00
    2.22500E+02    0.00000E+00    0.00000E+00
    2.23500E+02    0.00000E+00    0.00000E+00
    2.24500E+02    0.00000E+00    0.00000E+00
    2.25500E+02    0.00000E+00    0.00000E+00
    2.26500E+02    0.00000E+00    0.00000E+00
    2.27500E+02    0.00000E+00    0.00000E+00
    2.28500E+02    0.00000E+00    0.00000E+00
    2.29500E+02    0.00000E+00    0.00000E+00
    2.30500E+02    0.00000E+00    0.00000E+00
    2.31500E+02    0.00000E+00    0.00000E+00
    2.32500E+02    0.00000E+00    0.00000E+00
    2.33500E+02    0.00000E+00    0.00000E+00
    2.34500E+02    0.00000E+00    0.00000E+00
    2.35500E+02    0.00000E+00    0.00000E+00
    2.36500E+02    0.00000E+00    0.00000E+00
    2.37500E+02    0.00000E+00    0.00000E+00
    2.38500E+02    0.00000E+00    0.00000E+00
    2.39500E+02    0.00000E+00    0.00000E+00
    2.40500E+02    0.00000E+00    0.00000E+00
    2.41500E+02    0.00000E+00    0.00000E+00
    2.42500E+02    0.00000E+00    0.00000E+00
    2.43500E+02    0.00000E+00    0.00000E+00
    2.44500E+02    0.00000E+00    0.00000E+00
    2.45500E+02    0.00000E+00    0.00000E+00
    2.46500E+02    0.00000E+00    0.00000E+00
    2.47500E+02    0.00000E+00    0.00000E+00
    2.48500E+02    0.00000E+00    0.00000E+00
    2.49500E+02    0.00000E+00    0.00000E+00
    2.50500E+02    0.00000E+00    0.00000E+00
    2.51500E+02    0.00000E+00    0.00000E+00
    2.52500E+02    0.00000E+00    0.00000E+00
    2.53500E+02    0.00000E+00    0.00000E+00
    2.54500E+02    0.00000E+00    0.00000E+00
    2.55500E+02    0.00000E+00    0.00000E+00
    2.56500E+02    0.00000E+00    0.00000E+00
    2.57500E+02    0.00000E+00    0.00000E+00
    2.58500E+02    0.00000E+00    0.00000E+00
    2.59500E+02    0.00000E+00    0.00000E+00
    2.60500E+02    0.00000E+00    0.00000E+00
    2.61500E+02    0.00000E+00    0.00000E+00
    2.62500E+02    0.00000E+00    0.00000E+00
    2.63500E+02    0.00000E+00    0.00000E+00
    2.64500E+02    0.00000E+00    0.00000E+00
    2.65500E+02    0.00000E+00    0.00000E+00
    2.66500E+02    0.00000E+00    0.00000E+00
    2.67500E+02    0.00000E+00    0.00000E+00
    2.68500E+02    0.00000E+00    0.00000E+00
    2.69500E+02    0.00000E+00    0.00000E+00
    2.70500E+02    0.00000E+00    0.00000E+00
    2.71500E+02    0.00000E+00    0.00000E+00
    2.72500E+02    0.00000E+00    0.00000E+00
    2.73500E+02    0.00000E+00    0.00000E+00
    2.74500E+02    0.00000E+00    0.00000E+00
    2.75500E+02    0.00000E+00    0.00000E+00
    2.76500E+02    0.00000E+00    0.00000E+00
    2.77500E+02    0.00000E+00    0.00000E+00
    2.78500E+02    0.00000E+00    0.00000E+00
    2.79500E+02    0.00000E+00    0.00000E+00
    2.80500E+02    0.00000E+00    0.00000E+00
    2.81500E+02    0.00000E+00    0.00000E+00
    2.82500E+02    0.00000E+00    0.00000E+00
    2.83500E+02    0.00000E+00    0.00000E+00
    2.84500E+02    0.00000E+00    0.00000E+00
    2.85500E+02    0.00000E+00    0.00000E+00
    2.86500E+02    0.00000E+00    0.00000E+00
    2.87500E+02    0.00000E+00    0.00000E+00
    2.88500E+02    0.00000E+00    0.00000E+00
    2.89500E+02    0.00000E+00    0.00000E+00
    2.90500E+02    0.00000E+00    0.00000E+00
    2.91500E+02    0.00000E+00    0.00000E+00
    2.92500E+02    0.00000E+00    0.00000E+00
    2.93500E+02    0.00000E+00    0.00000E+00
    2.94500E+02    0.00000E+00    0.00000E+00
    2.95500E+02    0.00000E+00    0.00000E+00
    2.96500E+02    0.00000E+00    0.00000E+00
    2.97500E+02    0.00000E+00    0.00000E+00
    2.98500E+02    0.00000E+00    0.00000E+00
    2.99500E+02    0.00000E+00    0.00000E+00
    3.00500E+02    0.00000E+00    0.00000E+00
    3.01500E+02    0.00000E+00    0.00000E+00
    3.02500E+02    0.00000E+00    0.00000E+00
    3.03500E+02    0.00000E+00    0.00000E+00
    3.04500E+02    0.00000E+00    0.00000E+00
    3.05500E+02    0.00000E+00    0.00000E+00
    3.06500E+02    0.00000E+00    0.00000E+00
    3.07500E+02    0.00000E+00    0.00000E+00
    3.08500E+02    0.00000E+00    0.00000E+00
    3.09500E+02    0.00000E+00    0.00000E+00
    3.10500E+02    0.00000E+00    0.00000E+00
    3.11500E+02    0.00000E+00    0.00000E+00
    3.12500E+02    0.00000E+00    0.00000E+00
    3.13500E+02    0.00000E+00    0.00000E+00
    3.14500E+02    0.00000E+00    0.00000E+00
    3.15500E+02    0.00000E+00    0.00000E+00
    3.16500E+02    0.00000E+00    0.00000E+00
    3.17500E+02    0.00000E+00    0.00000E+00
    3.18500E+02    0.00000E+00    0.00000E+00
    3.19500E+02    0.00000E+00    0.00000E+00
    3.20500E+02    0.00000E+00    0.00000E+00
    3.21500E+02    0.00000E+00    0.00000E+00
    3.22500E+02    0.00000E+00    0.00000E+00
    3.23500E+02    0.00000E+00    0.00000E+00
    3.24500E+02    0.00000E+00    0.00000E+00
    3.25500E+02    0.00000E+00    0.00000E+00
    3.26500E+02    0.00000E+00    0.00000E+00
    3.27500E+02    0.00000E+00    0.00000E+00
    3.28500E+02    0.00000E+00    0.00000E+00
    3.29500E+02    0.00000E+00    0.00000E+00
    3.30500E+02    0.00000E+00    0.00000E+00
    3.31500E+02    0.00000E+00    0.00000E+00
    3.32500E+02    0.00000E+00    0.00000E+00
    3.33500E+02    0.00000E+00    0.00000E+00
    3.34500E+02    0.00000E+00    0.00000E+00
    3.35500E+02    0.00000E+00    0.00000E+00
    3.36500E+02    0.00000E+00    0.00000E+00
    3.37500E+02    0.00000E+00    0.00000E+00
    3.38500E+02    0.00000E+00    0.00000E+00
    3.39500E+02    0.00000E+00    0.00000E+00
    3.40500E+02    0.00000E+00    0.00000E+00
    3.41500E+02    0.00000E+00    0.00000E+00
    3.42500E+02    0.00000E+00    0.00000E+00
    3.43500E+02    0.00000E+00    0.00000E+00
    3.44500E+02    0.00000E+00    0.00000E+00
    3.45500E+02    0.00000E+00    0.00000E+00
    3.46500E+02    0.00000E+00    0.00000E+00
    3.47500E+02    0.00000E+00    0.00000E+00
    3.48500E+02    0.00000E+00    0.00000E+00
    3.49500E+02    0.00000E+00    0.00000E+00
    3.50500E+02    0.00000E+00    0.00000E+00
    3.51500E+02    0.00000E+00    0.00000E+00
    3.52500E+02    0.00000E+00    0.00000E+00
    3.53500E+02    0.00000E+00    0.00000E+00
    3.54500E+02    0.00000E+00    0.00000E+00
    3.55500E+02    0.00000E+00    0.00000E+00
    3.56500E+02    0.00000E+00    0.00000E+00
    3.57500E+02    0.00000E+00    0.00000E+00
    3.58500E+02    0.00000E+00    0.00000E+00
    3.59500E+02    0.00000E+00    0.00000E+00
