     R_cyl [km]         z [km]        T [MeV]
    5.00000E-01    1.74654E+01    4.30692E+00
    1.50000E+00    1.74394E+01    4.29226E+00
    2.50000E+00    1.74223E+01    4.28722E+00
    3.50000E+00    1.74027E+01    4.27787E+00
    4.50000E+00    1.73734E+01    4.26819E+00
    5.50000E+00    1.73244E+01    4.26282E+00
    6.50000E+00    1.72453E+01    4.25991E+00
    7.50000E+00    1.72107E+01    4.13531E+00
    8.50000E+00    1.69430E+01    4.30260E+00
    9.50000E+00    1.66862E+01    4.34347E+00
    1.05000E+01    1.64171E+01    4.33674E+00
    1.15000E+01    1.62496E+01    4.20829E+00
    1.25000E+01    1.59801E+01    4.16505E+00
    1.35000E+01    1.54208E+01    4.36571E+00
    1.45000E+01    1.51672E+01    4.20926E+00
    1.55000E+01    1.47650E+01    4.16837E+00
    1.65000E+01    1.41841E+01    4.31155E+00
    1.75000E+01    1.36845E+01    4.27768E+00
    1.85000E+01    1.31395E+01    4.26235E+00
    1.95000E+01    1.25160E+01    4.25402E+00
    2.05000E+01    1.19337E+01    4.22118E+00
    2.15000E+01    1.12780E+01    4.15966E+00
    2.25000E+01    1.04846E+01    4.17511E+00
    2.35000E+01    9.81192E+00    4.08166E+00
    2.45000E+01    9.01723E+00    4.05325E+00
    2.55000E+01    8.23805E+00    4.00337E+00
    2.65000E+01    7.51060E+00    3.95529E+00
    2.75000E+01    6.89494E+00    3.89543E+00
    2.85000E+01    6.39910E+00    3.81677E+00
    2.95000E+01    6.15435E+00    3.90781E+00
    3.05000E+01    6.02865E+00    4.08200E+00
    3.15000E+01    6.00449E+00    4.06929E+00
    3.25000E+01    6.06129E+00    4.02110E+00
    3.35000E+01    6.15482E+00    3.99040E+00
    3.45000E+01    6.24801E+00    3.98939E+00
    3.55000E+01    6.33132E+00    4.00596E+00
    3.65000E+01    6.40230E+00    4.02553E+00
    3.75000E+01    6.46411E+00    4.03583E+00
    3.85000E+01    6.51867E+00    4.03706E+00
    3.95000E+01    6.56442E+00    4.03347E+00
    4.05000E+01    6.59709E+00    4.02722E+00
    4.15000E+01    6.61743E+00    4.01519E+00
    4.25000E+01    6.62736E+00    3.99466E+00
    4.35000E+01    6.62512E+00    3.97010E+00
    4.45000E+01    6.60784E+00    3.94106E+00
    4.55000E+01    6.57559E+00    3.90776E+00
    4.65000E+01    6.52683E+00    3.87016E+00
    4.75000E+01    6.45968E+00    3.83092E+00
    4.85000E+01    6.37396E+00    3.78931E+00
    4.95000E+01    6.26719E+00    3.74602E+00
    5.05000E+01    6.13659E+00    3.70163E+00
    5.15000E+01    5.98024E+00    3.65616E+00
    5.25000E+01    5.80148E+00    3.60940E+00
    5.35000E+01    5.59932E+00    3.56160E+00
    5.45000E+01    5.37311E+00    3.51303E+00
    5.55000E+01    5.11879E+00    3.46376E+00
    5.65000E+01    4.83321E+00    3.41478E+00
    5.75000E+01    4.52149E+00    3.36682E+00
    5.85000E+01    4.18306E+00    3.31838E+00
    5.95000E+01    3.81300E+00    3.27036E+00
    6.05000E+01    3.41039E+00    3.22302E+00
    6.15000E+01    2.97650E+00    3.17394E+00
    6.25000E+01    2.51092E+00    3.12595E+00
    6.35000E+01    2.00968E+00    3.07698E+00
    6.45000E+01    1.46842E+00    3.02882E+00
    6.55000E+01    8.87044E-01    2.97851E+00
    6.65000E+01    0.00000E+00    0.00000E+00
    6.75000E+01    0.00000E+00    0.00000E+00
    6.85000E+01    0.00000E+00    0.00000E+00
    6.95000E+01    0.00000E+00    0.00000E+00
    7.05000E+01    0.00000E+00    0.00000E+00
    7.15000E+01    0.00000E+00    0.00000E+00
    7.25000E+01    0.00000E+00    0.00000E+00
    7.35000E+01    0.00000E+00    0.00000E+00
    7.45000E+01    0.00000E+00    0.00000E+00
    7.55000E+01    0.00000E+00    0.00000E+00
    7.65000E+01    0.00000E+00    0.00000E+00
    7.75000E+01    0.00000E+00    0.00000E+00
    7.85000E+01    0.00000E+00    0.00000E+00
    7.95000E+01    0.00000E+00    0.00000E+00
    8.05000E+01    0.00000E+00    0.00000E+00
    8.15000E+01    0.00000E+00    0.00000E+00
    8.25000E+01    0.00000E+00    0.00000E+00
    8.35000E+01    0.00000E+00    0.00000E+00
    8.45000E+01    0.00000E+00    0.00000E+00
    8.55000E+01    0.00000E+00    0.00000E+00
    8.65000E+01    0.00000E+00    0.00000E+00
    8.75000E+01    0.00000E+00    0.00000E+00
    8.85000E+01    0.00000E+00    0.00000E+00
    8.95000E+01    0.00000E+00    0.00000E+00
    9.05000E+01    0.00000E+00    0.00000E+00
    9.15000E+01    0.00000E+00    0.00000E+00
    9.25000E+01    0.00000E+00    0.00000E+00
    9.35000E+01    0.00000E+00    0.00000E+00
    9.45000E+01    0.00000E+00    0.00000E+00
    9.55000E+01    0.00000E+00    0.00000E+00
    9.65000E+01    0.00000E+00    0.00000E+00
    9.75000E+01    0.00000E+00    0.00000E+00
    9.85000E+01    0.00000E+00    0.00000E+00
    9.95000E+01    0.00000E+00    0.00000E+00
    1.00500E+02    0.00000E+00    0.00000E+00
    1.01500E+02    0.00000E+00    0.00000E+00
    1.02500E+02    0.00000E+00    0.00000E+00
    1.03500E+02    0.00000E+00    0.00000E+00
    1.04500E+02    0.00000E+00    0.00000E+00
    1.05500E+02    0.00000E+00    0.00000E+00
    1.06500E+02    0.00000E+00    0.00000E+00
    1.07500E+02    0.00000E+00    0.00000E+00
    1.08500E+02    0.00000E+00    0.00000E+00
    1.09500E+02    0.00000E+00    0.00000E+00
    1.10500E+02    0.00000E+00    0.00000E+00
    1.11500E+02    0.00000E+00    0.00000E+00
    1.12500E+02    0.00000E+00    0.00000E+00
    1.13500E+02    0.00000E+00    0.00000E+00
    1.14500E+02    0.00000E+00    0.00000E+00
    1.15500E+02    0.00000E+00    0.00000E+00
    1.16500E+02    0.00000E+00    0.00000E+00
    1.17500E+02    0.00000E+00    0.00000E+00
    1.18500E+02    0.00000E+00    0.00000E+00
    1.19500E+02    0.00000E+00    0.00000E+00
    1.20500E+02    0.00000E+00    0.00000E+00
    1.21500E+02    0.00000E+00    0.00000E+00
    1.22500E+02    0.00000E+00    0.00000E+00
    1.23500E+02    0.00000E+00    0.00000E+00
    1.24500E+02    0.00000E+00    0.00000E+00
    1.25500E+02    0.00000E+00    0.00000E+00
    1.26500E+02    0.00000E+00    0.00000E+00
    1.27500E+02    0.00000E+00    0.00000E+00
    1.28500E+02    0.00000E+00    0.00000E+00
    1.29500E+02    0.00000E+00    0.00000E+00
    1.30500E+02    0.00000E+00    0.00000E+00
    1.31500E+02    0.00000E+00    0.00000E+00
    1.32500E+02    0.00000E+00    0.00000E+00
    1.33500E+02    0.00000E+00    0.00000E+00
    1.34500E+02    0.00000E+00    0.00000E+00
    1.35500E+02    0.00000E+00    0.00000E+00
    1.36500E+02    0.00000E+00    0.00000E+00
    1.37500E+02    0.00000E+00    0.00000E+00
    1.38500E+02    0.00000E+00    0.00000E+00
    1.39500E+02    0.00000E+00    0.00000E+00
    1.40500E+02    0.00000E+00    0.00000E+00
    1.41500E+02    0.00000E+00    0.00000E+00
    1.42500E+02    0.00000E+00    0.00000E+00
    1.43500E+02    0.00000E+00    0.00000E+00
    1.44500E+02    0.00000E+00    0.00000E+00
    1.45500E+02    0.00000E+00    0.00000E+00
    1.46500E+02    0.00000E+00    0.00000E+00
    1.47500E+02    0.00000E+00    0.00000E+00
    1.48500E+02    0.00000E+00    0.00000E+00
    1.49500E+02    0.00000E+00    0.00000E+00
    1.50500E+02    0.00000E+00    0.00000E+00
    1.51500E+02    0.00000E+00    0.00000E+00
    1.52500E+02    0.00000E+00    0.00000E+00
    1.53500E+02    0.00000E+00    0.00000E+00
    1.54500E+02    0.00000E+00    0.00000E+00
    1.55500E+02    0.00000E+00    0.00000E+00
    1.56500E+02    0.00000E+00    0.00000E+00
    1.57500E+02    0.00000E+00    0.00000E+00
    1.58500E+02    0.00000E+00    0.00000E+00
    1.59500E+02    0.00000E+00    0.00000E+00
    1.60500E+02    0.00000E+00    0.00000E+00
    1.61500E+02    0.00000E+00    0.00000E+00
    1.62500E+02    0.00000E+00    0.00000E+00
    1.63500E+02    0.00000E+00    0.00000E+00
    1.64500E+02    0.00000E+00    0.00000E+00
    1.65500E+02    0.00000E+00    0.00000E+00
    1.66500E+02    0.00000E+00    0.00000E+00
    1.67500E+02    0.00000E+00    0.00000E+00
    1.68500E+02    0.00000E+00    0.00000E+00
    1.69500E+02    0.00000E+00    0.00000E+00
    1.70500E+02    0.00000E+00    0.00000E+00
    1.71500E+02    0.00000E+00    0.00000E+00
    1.72500E+02    0.00000E+00    0.00000E+00
    1.73500E+02    0.00000E+00    0.00000E+00
    1.74500E+02    0.00000E+00    0.00000E+00
    1.75500E+02    0.00000E+00    0.00000E+00
    1.76500E+02    0.00000E+00    0.00000E+00
    1.77500E+02    0.00000E+00    0.00000E+00
    1.78500E+02    0.00000E+00    0.00000E+00
    1.79500E+02    0.00000E+00    0.00000E+00
    1.80500E+02    0.00000E+00    0.00000E+00
    1.81500E+02    0.00000E+00    0.00000E+00
    1.82500E+02    0.00000E+00    0.00000E+00
    1.83500E+02    0.00000E+00    0.00000E+00
    1.84500E+02    0.00000E+00    0.00000E+00
    1.85500E+02    0.00000E+00    0.00000E+00
    1.86500E+02    0.00000E+00    0.00000E+00
    1.87500E+02    0.00000E+00    0.00000E+00
    1.88500E+02    0.00000E+00    0.00000E+00
    1.89500E+02    0.00000E+00    0.00000E+00
    1.90500E+02    0.00000E+00    0.00000E+00
    1.91500E+02    0.00000E+00    0.00000E+00
    1.92500E+02    0.00000E+00    0.00000E+00
    1.93500E+02    0.00000E+00    0.00000E+00
    1.94500E+02    0.00000E+00    0.00000E+00
    1.95500E+02    0.00000E+00    0.00000E+00
    1.96500E+02    0.00000E+00    0.00000E+00
    1.97500E+02    0.00000E+00    0.00000E+00
    1.98500E+02    0.00000E+00    0.00000E+00
    1.99500E+02    0.00000E+00    0.00000E+00
    2.00500E+02    0.00000E+00    0.00000E+00
    2.01500E+02    0.00000E+00    0.00000E+00
    2.02500E+02    0.00000E+00    0.00000E+00
    2.03500E+02    0.00000E+00    0.00000E+00
    2.04500E+02    0.00000E+00    0.00000E+00
    2.05500E+02    0.00000E+00    0.00000E+00
    2.06500E+02    0.00000E+00    0.00000E+00
    2.07500E+02    0.00000E+00    0.00000E+00
    2.08500E+02    0.00000E+00    0.00000E+00
    2.09500E+02    0.00000E+00    0.00000E+00
    2.10500E+02    0.00000E+00    0.00000E+00
    2.11500E+02    0.00000E+00    0.00000E+00
    2.12500E+02    0.00000E+00    0.00000E+00
    2.13500E+02    0.00000E+00    0.00000E+00
    2.14500E+02    0.00000E+00    0.00000E+00
    2.15500E+02    0.00000E+00    0.00000E+00
    2.16500E+02    0.00000E+00    0.00000E+00
    2.17500E+02    0.00000E+00    0.00000E+00
    2.18500E+02    0.00000E+00    0.00000E+00
    2.19500E+02    0.00000E+00    0.00000E+00
    2.20500E+02    0.00000E+00    0.00000E+00
    2.21500E+02    0.00000E+00    0.00000E+00
    2.22500E+02    0.00000E+00    0.00000E+00
    2.23500E+02    0.00000E+00    0.00000E+00
    2.24500E+02    0.00000E+00    0.00000E+00
    2.25500E+02    0.00000E+00    0.00000E+00
    2.26500E+02    0.00000E+00    0.00000E+00
    2.27500E+02    0.00000E+00    0.00000E+00
    2.28500E+02    0.00000E+00    0.00000E+00
    2.29500E+02    0.00000E+00    0.00000E+00
    2.30500E+02    0.00000E+00    0.00000E+00
    2.31500E+02    0.00000E+00    0.00000E+00
    2.32500E+02    0.00000E+00    0.00000E+00
    2.33500E+02    0.00000E+00    0.00000E+00
    2.34500E+02    0.00000E+00    0.00000E+00
    2.35500E+02    0.00000E+00    0.00000E+00
    2.36500E+02    0.00000E+00    0.00000E+00
    2.37500E+02    0.00000E+00    0.00000E+00
    2.38500E+02    0.00000E+00    0.00000E+00
    2.39500E+02    0.00000E+00    0.00000E+00
    2.40500E+02    0.00000E+00    0.00000E+00
    2.41500E+02    0.00000E+00    0.00000E+00
    2.42500E+02    0.00000E+00    0.00000E+00
    2.43500E+02    0.00000E+00    0.00000E+00
    2.44500E+02    0.00000E+00    0.00000E+00
    2.45500E+02    0.00000E+00    0.00000E+00
    2.46500E+02    0.00000E+00    0.00000E+00
    2.47500E+02    0.00000E+00    0.00000E+00
    2.48500E+02    0.00000E+00    0.00000E+00
    2.49500E+02    0.00000E+00    0.00000E+00
    2.50500E+02    0.00000E+00    0.00000E+00
    2.51500E+02    0.00000E+00    0.00000E+00
    2.52500E+02    0.00000E+00    0.00000E+00
    2.53500E+02    0.00000E+00    0.00000E+00
    2.54500E+02    0.00000E+00    0.00000E+00
    2.55500E+02    0.00000E+00    0.00000E+00
    2.56500E+02    0.00000E+00    0.00000E+00
    2.57500E+02    0.00000E+00    0.00000E+00
    2.58500E+02    0.00000E+00    0.00000E+00
    2.59500E+02    0.00000E+00    0.00000E+00
    2.60500E+02    0.00000E+00    0.00000E+00
    2.61500E+02    0.00000E+00    0.00000E+00
    2.62500E+02    0.00000E+00    0.00000E+00
    2.63500E+02    0.00000E+00    0.00000E+00
    2.64500E+02    0.00000E+00    0.00000E+00
    2.65500E+02    0.00000E+00    0.00000E+00
    2.66500E+02    0.00000E+00    0.00000E+00
    2.67500E+02    0.00000E+00    0.00000E+00
    2.68500E+02    0.00000E+00    0.00000E+00
    2.69500E+02    0.00000E+00    0.00000E+00
    2.70500E+02    0.00000E+00    0.00000E+00
    2.71500E+02    0.00000E+00    0.00000E+00
    2.72500E+02    0.00000E+00    0.00000E+00
    2.73500E+02    0.00000E+00    0.00000E+00
    2.74500E+02    0.00000E+00    0.00000E+00
    2.75500E+02    0.00000E+00    0.00000E+00
    2.76500E+02    0.00000E+00    0.00000E+00
    2.77500E+02    0.00000E+00    0.00000E+00
    2.78500E+02    0.00000E+00    0.00000E+00
    2.79500E+02    0.00000E+00    0.00000E+00
    2.80500E+02    0.00000E+00    0.00000E+00
    2.81500E+02    0.00000E+00    0.00000E+00
    2.82500E+02    0.00000E+00    0.00000E+00
    2.83500E+02    0.00000E+00    0.00000E+00
    2.84500E+02    0.00000E+00    0.00000E+00
    2.85500E+02    0.00000E+00    0.00000E+00
    2.86500E+02    0.00000E+00    0.00000E+00
    2.87500E+02    0.00000E+00    0.00000E+00
    2.88500E+02    0.00000E+00    0.00000E+00
    2.89500E+02    0.00000E+00    0.00000E+00
    2.90500E+02    0.00000E+00    0.00000E+00
    2.91500E+02    0.00000E+00    0.00000E+00
    2.92500E+02    0.00000E+00    0.00000E+00
    2.93500E+02    0.00000E+00    0.00000E+00
    2.94500E+02    0.00000E+00    0.00000E+00
    2.95500E+02    0.00000E+00    0.00000E+00
    2.96500E+02    0.00000E+00    0.00000E+00
    2.97500E+02    0.00000E+00    0.00000E+00
    2.98500E+02    0.00000E+00    0.00000E+00
    2.99500E+02    0.00000E+00    0.00000E+00
    3.00500E+02    0.00000E+00    0.00000E+00
    3.01500E+02    0.00000E+00    0.00000E+00
    3.02500E+02    0.00000E+00    0.00000E+00
    3.03500E+02    0.00000E+00    0.00000E+00
    3.04500E+02    0.00000E+00    0.00000E+00
    3.05500E+02    0.00000E+00    0.00000E+00
    3.06500E+02    0.00000E+00    0.00000E+00
    3.07500E+02    0.00000E+00    0.00000E+00
    3.08500E+02    0.00000E+00    0.00000E+00
    3.09500E+02    0.00000E+00    0.00000E+00
    3.10500E+02    0.00000E+00    0.00000E+00
    3.11500E+02    0.00000E+00    0.00000E+00
    3.12500E+02    0.00000E+00    0.00000E+00
    3.13500E+02    0.00000E+00    0.00000E+00
    3.14500E+02    0.00000E+00    0.00000E+00
    3.15500E+02    0.00000E+00    0.00000E+00
    3.16500E+02    0.00000E+00    0.00000E+00
    3.17500E+02    0.00000E+00    0.00000E+00
    3.18500E+02    0.00000E+00    0.00000E+00
    3.19500E+02    0.00000E+00    0.00000E+00
    3.20500E+02    0.00000E+00    0.00000E+00
    3.21500E+02    0.00000E+00    0.00000E+00
    3.22500E+02    0.00000E+00    0.00000E+00
    3.23500E+02    0.00000E+00    0.00000E+00
    3.24500E+02    0.00000E+00    0.00000E+00
    3.25500E+02    0.00000E+00    0.00000E+00
    3.26500E+02    0.00000E+00    0.00000E+00
    3.27500E+02    0.00000E+00    0.00000E+00
    3.28500E+02    0.00000E+00    0.00000E+00
    3.29500E+02    0.00000E+00    0.00000E+00
    3.30500E+02    0.00000E+00    0.00000E+00
    3.31500E+02    0.00000E+00    0.00000E+00
    3.32500E+02    0.00000E+00    0.00000E+00
    3.33500E+02    0.00000E+00    0.00000E+00
    3.34500E+02    0.00000E+00    0.00000E+00
    3.35500E+02    0.00000E+00    0.00000E+00
    3.36500E+02    0.00000E+00    0.00000E+00
    3.37500E+02    0.00000E+00    0.00000E+00
    3.38500E+02    0.00000E+00    0.00000E+00
    3.39500E+02    0.00000E+00    0.00000E+00
    3.40500E+02    0.00000E+00    0.00000E+00
    3.41500E+02    0.00000E+00    0.00000E+00
    3.42500E+02    0.00000E+00    0.00000E+00
    3.43500E+02    0.00000E+00    0.00000E+00
    3.44500E+02    0.00000E+00    0.00000E+00
    3.45500E+02    0.00000E+00    0.00000E+00
    3.46500E+02    0.00000E+00    0.00000E+00
    3.47500E+02    0.00000E+00    0.00000E+00
    3.48500E+02    0.00000E+00    0.00000E+00
    3.49500E+02    0.00000E+00    0.00000E+00
    3.50500E+02    0.00000E+00    0.00000E+00
    3.51500E+02    0.00000E+00    0.00000E+00
    3.52500E+02    0.00000E+00    0.00000E+00
    3.53500E+02    0.00000E+00    0.00000E+00
    3.54500E+02    0.00000E+00    0.00000E+00
    3.55500E+02    0.00000E+00    0.00000E+00
    3.56500E+02    0.00000E+00    0.00000E+00
    3.57500E+02    0.00000E+00    0.00000E+00
    3.58500E+02    0.00000E+00    0.00000E+00
    3.59500E+02    0.00000E+00    0.00000E+00
