           time        x coord        y coord        z coord         radius           dens           temp             ye            |v|             vx             vy             vz
            sec             km             km             km             km         g/cm^3             GK              -           cm/s           cm/s           cm/s           cm/s
     4.4405E-02    -4.7645E+01    -8.8147E+01     1.2445E+02     1.5977E+02     1.8596E+08     1.3905E+01     3.1119E-01     3.6156E+09     3.1660E+09    -1.7265E+09     2.6191E+08
     4.4578E-02    -4.2072E+01    -9.0958E+01     1.2490E+02     1.6014E+02     1.8384E+08     1.3879E+01     3.1154E-01     3.6105E+09     3.2653E+09    -1.5179E+09     2.6367E+08
     4.4752E-02    -3.6315E+01    -9.3414E+01     1.2536E+02     1.6050E+02     1.8168E+08     1.3851E+01     3.1194E-01     3.6065E+09     3.3515E+09    -1.3056E+09     2.6465E+08
     4.4927E-02    -3.0396E+01    -9.5506E+01     1.2583E+02     1.6087E+02     1.7937E+08     1.3819E+01     3.1233E-01     3.6031E+09     3.4242E+09    -1.0894E+09     2.6496E+08
     4.5102E-02    -2.4342E+01    -9.7224E+01     1.2629E+02     1.6123E+02     1.7703E+08     1.3788E+01     3.1275E-01     3.6006E+09     3.4837E+09    -8.7060E+08     2.6487E+08
     4.5277E-02    -1.8181E+01    -9.8559E+01     1.2675E+02     1.6159E+02     1.7464E+08     1.3755E+01     3.1316E-01     3.5984E+09     3.5293E+09    -6.4981E+08     2.6479E+08
     4.5453E-02    -1.1943E+01    -9.9507E+01     1.2722E+02     1.6196E+02     1.7230E+08     1.3723E+01     3.1360E-01     3.5961E+09     3.5607E+09    -4.2803E+08     2.6493E+08
     4.5629E-02    -5.6600E+00    -1.0006E+02     1.2769E+02     1.6232E+02     1.6996E+08     1.3692E+01     3.1407E-01     3.5946E+09     3.5789E+09    -2.0572E+08     2.6526E+08
     4.5805E-02     6.4468E-01    -1.0023E+02     1.2816E+02     1.6270E+02     1.6762E+08     1.3659E+01     3.1451E-01     3.5924E+09     3.5824E+09     1.6535E+07     2.6592E+08
     4.5981E-02     6.9460E+00    -1.0001E+02     1.2862E+02     1.6308E+02     1.6528E+08     1.3626E+01     3.1499E-01     3.5906E+09     3.5727E+09     2.3857E+08     2.6696E+08
     4.6158E-02     1.3222E+01    -9.9391E+01     1.2910E+02     1.6346E+02     1.6298E+08     1.3591E+01     3.1542E-01     3.5875E+09     3.5478E+09     4.5934E+08     2.6845E+08
     4.6334E-02     1.9445E+01    -9.8388E+01     1.2957E+02     1.6385E+02     1.6079E+08     1.3559E+01     3.1586E-01     3.5842E+09     3.5090E+09     6.7833E+08     2.7050E+08
     4.6511E-02     2.5593E+01    -9.7000E+01     1.3005E+02     1.6425E+02     1.5866E+08     1.3527E+01     3.1626E-01     3.5798E+09     3.4554E+09     8.9450E+08     2.7326E+08
     4.6687E-02     3.1637E+01    -9.5231E+01     1.3054E+02     1.6465E+02     1.5668E+08     1.3498E+01     3.1671E-01     3.5756E+09     3.3884E+09     1.1076E+09     2.7685E+08
     4.6864E-02     3.7549E+01    -9.3092E+01     1.3103E+02     1.6506E+02     1.5472E+08     1.3469E+01     3.1712E-01     3.5704E+09     3.3073E+09     1.3155E+09     2.8118E+08
     4.7040E-02     4.3310E+01    -9.0589E+01     1.3153E+02     1.6548E+02     1.5290E+08     1.3442E+01     3.1748E-01     3.5647E+09     3.2129E+09     1.5173E+09     2.8616E+08
     4.7217E-02     4.8895E+01    -8.7734E+01     1.3204E+02     1.6590E+02     1.5106E+08     1.3412E+01     3.1786E-01     3.5590E+09     3.1064E+09     1.7124E+09     2.9173E+08
     4.7393E-02     5.4277E+01    -8.4544E+01     1.3256E+02     1.6633E+02     1.4928E+08     1.3384E+01     3.1823E-01     3.5538E+09     2.9886E+09     1.8998E+09     2.9753E+08
     4.7570E-02     5.9446E+01    -8.1028E+01     1.3309E+02     1.6677E+02     1.4743E+08     1.3354E+01     3.1862E-01     3.5488E+09     2.8600E+09     2.0792E+09     3.0340E+08
     4.7747E-02     6.4382E+01    -7.7201E+01     1.3363E+02     1.6722E+02     1.4559E+08     1.3323E+01     3.1897E-01     3.5438E+09     2.7214E+09     2.2488E+09     3.0887E+08
     4.7924E-02     6.9066E+01    -7.3080E+01     1.3418E+02     1.6768E+02     1.4367E+08     1.3289E+01     3.1930E-01     3.5392E+09     2.5736E+09     2.4092E+09     3.1373E+08
     4.8101E-02     7.3482E+01    -6.8685E+01     1.3474E+02     1.6815E+02     1.4175E+08     1.3254E+01     3.1963E-01     3.5344E+09     2.4174E+09     2.5587E+09     3.1781E+08
     4.8278E-02     7.7609E+01    -6.4039E+01     1.3531E+02     1.6862E+02     1.3977E+08     1.3219E+01     3.2000E-01     3.5305E+09     2.2537E+09     2.6986E+09     3.2095E+08
     4.8454E-02     8.1443E+01    -5.9154E+01     1.3588E+02     1.6910E+02     1.3776E+08     1.3181E+01     3.2035E-01     3.5263E+09     2.0829E+09     2.8270E+09     3.2307E+08
     4.8631E-02     8.4971E+01    -5.4050E+01     1.3645E+02     1.6959E+02     1.3576E+08     1.3142E+01     3.2071E-01     3.5225E+09     1.9060E+09     2.9446E+09     3.2401E+08
     4.8808E-02     8.8180E+01    -4.8751E+01     1.3702E+02     1.7008E+02     1.3372E+08     1.3101E+01     3.2105E-01     3.5182E+09     1.7237E+09     3.0499E+09     3.2379E+08
     4.8985E-02     9.1063E+01    -4.3272E+01     1.3759E+02     1.7058E+02     1.3170E+08     1.3061E+01     3.2142E-01     3.5149E+09     1.5368E+09     3.1447E+09     3.2233E+08
     4.9161E-02     9.3612E+01    -3.7637E+01     1.3816E+02     1.7108E+02     1.2966E+08     1.3020E+01     3.2178E-01     3.5111E+09     1.3462E+09     3.2270E+09     3.1991E+08
     4.9338E-02     9.5822E+01    -3.1865E+01     1.3872E+02     1.7159E+02     1.2763E+08     1.2978E+01     3.2216E-01     3.5078E+09     1.1527E+09     3.2978E+09     3.1667E+08
     4.9515E-02     9.7688E+01    -2.5979E+01     1.3928E+02     1.7209E+02     1.2561E+08     1.2935E+01     3.2253E-01     3.5046E+09     9.5714E+08     3.3568E+09     3.1286E+08
     4.9692E-02     9.9207E+01    -1.9997E+01     1.3983E+02     1.7261E+02     1.2360E+08     1.2891E+01     3.2292E-01     3.5016E+09     7.6012E+08     3.4041E+09     3.0880E+08
     4.9869E-02     1.0038E+02    -1.3947E+01     1.4037E+02     1.7313E+02     1.2165E+08     1.2848E+01     3.2331E-01     3.4986E+09     5.6253E+08     3.4396E+09     3.0475E+08
     5.0046E-02     1.0120E+02    -7.8398E+00     1.4091E+02     1.7366E+02     1.1973E+08     1.2806E+01     3.2371E-01     3.4954E+09     3.6454E+08     3.4632E+09     3.0109E+08
     5.0223E-02     1.0167E+02    -1.7032E+00     1.4144E+02     1.7419E+02     1.1792E+08     1.2767E+01     3.2411E-01     3.4919E+09     1.6672E+08     3.4751E+09     2.9817E+08
     5.0399E-02     1.0179E+02     4.4432E+00     1.4196E+02     1.7474E+02     1.1618E+08     1.2729E+01     3.2452E-01     3.4878E+09    -3.0554E+07     3.4750E+09     2.9632E+08
     5.0576E-02     1.0156E+02     1.0579E+01     1.4249E+02     1.7529E+02     1.1456E+08     1.2696E+01     3.2492E-01     3.4832E+09    -2.2709E+08     3.4632E+09     2.9566E+08
     5.0753E-02     1.0098E+02     1.6684E+01     1.4301E+02     1.7586E+02     1.1302E+08     1.2665E+01     3.2533E-01     3.4776E+09    -4.2251E+08     3.4391E+09     2.9649E+08
     5.0930E-02     1.0006E+02     2.2738E+01     1.4353E+02     1.7644E+02     1.1165E+08     1.2639E+01     3.2571E-01     3.4707E+09    -6.1616E+08     3.4025E+09     2.9860E+08
     5.1107E-02     9.8805E+01     2.8712E+01     1.4407E+02     1.7704E+02     1.1039E+08     1.2614E+01     3.2609E-01     3.4621E+09    -8.0748E+08     3.3531E+09     3.0212E+08
     5.1284E-02     9.7210E+01     3.4589E+01     1.4460E+02     1.7764E+02     1.0927E+08     1.2594E+01     3.2644E-01     3.4522E+09    -9.9599E+08     3.2912E+09     3.0668E+08
     5.1472E-02     9.5153E+01     4.0702E+01     1.4519E+02     1.7830E+02     1.0817E+08     1.2573E+01     3.2678E-01     3.4400E+09    -1.1923E+09     3.2116E+09     3.1248E+08
     5.1659E-02     9.2731E+01     4.6653E+01     1.4578E+02     1.7896E+02     1.0719E+08     1.2556E+01     3.2714E-01     3.4264E+09    -1.3835E+09     3.1184E+09     3.1916E+08
     5.1847E-02     8.9957E+01     5.2415E+01     1.4639E+02     1.7963E+02     1.0628E+08     1.2540E+01     3.2748E-01     3.4117E+09    -1.5683E+09     3.0122E+09     3.2648E+08
     5.2035E-02     8.6842E+01     5.7965E+01     1.4701E+02     1.8031E+02     1.0541E+08     1.2525E+01     3.2782E-01     3.3962E+09    -1.7456E+09     2.8941E+09     3.3428E+08
     5.2223E-02     8.3403E+01     6.3283E+01     1.4764E+02     1.8100E+02     1.0458E+08     1.2510E+01     3.2813E-01     3.3806E+09    -1.9144E+09     2.7652E+09     3.4225E+08
     5.2411E-02     7.9654E+01     6.8350E+01     1.4829E+02     1.8168E+02     1.0373E+08     1.2494E+01     3.2845E-01     3.3653E+09    -2.0740E+09     2.6269E+09     3.5020E+08
     5.2599E-02     7.5615E+01     7.3150E+01     1.4896E+02     1.8237E+02     1.0282E+08     1.2477E+01     3.2876E-01     3.3505E+09    -2.2237E+09     2.4805E+09     3.5785E+08
     5.2787E-02     7.1305E+01     7.7668E+01     1.4964E+02     1.8305E+02     1.0186E+08     1.2458E+01     3.2906E-01     3.3368E+09    -2.3630E+09     2.3275E+09     3.6492E+08
     5.2975E-02     6.6743E+01     8.1892E+01     1.5033E+02     1.8374E+02     1.0079E+08     1.2435E+01     3.2937E-01     3.3242E+09    -2.4916E+09     2.1690E+09     3.7130E+08
     5.3163E-02     6.1949E+01     8.5815E+01     1.5103E+02     1.8443E+02     9.9608E+07     1.2410E+01     3.2968E-01     3.3130E+09    -2.6095E+09     2.0062E+09     3.7687E+08
     5.3351E-02     5.6944E+01     8.9429E+01     1.5175E+02     1.8511E+02     9.8335E+07     1.2381E+01     3.2999E-01     3.3032E+09    -2.7167E+09     1.8400E+09     3.8154E+08
     5.3538E-02     5.1747E+01     9.2728E+01     1.5247E+02     1.8580E+02     9.6952E+07     1.2350E+01     3.3030E-01     3.2948E+09    -2.8132E+09     1.6713E+09     3.8536E+08
     5.3726E-02     4.6378E+01     9.5709E+01     1.5319E+02     1.8649E+02     9.5471E+07     1.2315E+01     3.3061E-01     3.2876E+09    -2.8993E+09     1.5006E+09     3.8835E+08
     5.3914E-02     4.0858E+01     9.8366E+01     1.5392E+02     1.8718E+02     9.3915E+07     1.2276E+01     3.3093E-01     3.2816E+09    -2.9752E+09     1.3284E+09     3.9057E+08
     5.4102E-02     3.5203E+01     1.0070E+02     1.5466E+02     1.8788E+02     9.2318E+07     1.2236E+01     3.3125E-01     3.2764E+09    -3.0409E+09     1.1550E+09     3.9202E+08
     5.4290E-02     2.9435E+01     1.0271E+02     1.5540E+02     1.8858E+02     9.0686E+07     1.2195E+01     3.3158E-01     3.2718E+09    -3.0965E+09     9.8071E+08     3.9291E+08
     5.4478E-02     2.3571E+01     1.0439E+02     1.5614E+02     1.8929E+02     8.9045E+07     1.2153E+01     3.3191E-01     3.2675E+09    -3.1422E+09     8.0550E+08     3.9338E+08
     5.4666E-02     1.7630E+01     1.0573E+02     1.5688E+02     1.9000E+02     8.7426E+07     1.2111E+01     3.3225E-01     3.2634E+09    -3.1778E+09     6.2950E+08     3.9367E+08
     5.4854E-02     1.1631E+01     1.0675E+02     1.5762E+02     1.9072E+02     8.5849E+07     1.2069E+01     3.3259E-01     3.2592E+09    -3.2035E+09     4.5290E+08     3.9392E+08
     5.5042E-02     5.5933E+00     1.0744E+02     1.5836E+02     1.9144E+02     8.4324E+07     1.2027E+01     3.3293E-01     3.2546E+09    -3.2189E+09     2.7592E+08     3.9434E+08
     5.5230E-02    -4.6202E-01     1.0779E+02     1.5910E+02     1.9217E+02     8.2850E+07     1.1987E+01     3.3324E-01     3.2498E+09    -3.2242E+09     9.8852E+07     3.9504E+08
     5.5418E-02    -6.5171E+00     1.0781E+02     1.5984E+02     1.9291E+02     8.1450E+07     1.1950E+01     3.3362E-01     3.2444E+09    -3.2192E+09    -7.8041E+07     3.9631E+08
     5.5606E-02    -1.2553E+01     1.0750E+02     1.6059E+02     1.9365E+02     8.0109E+07     1.1913E+01     3.3396E-01     3.2384E+09    -3.2037E+09    -2.5446E+08     3.9807E+08
     5.5794E-02    -1.8550E+01     1.0685E+02     1.6134E+02     1.9440E+02     7.8831E+07     1.1877E+01     3.3429E-01     3.2316E+09    -3.1778E+09    -4.2975E+08     4.0043E+08
     5.5981E-02    -2.4490E+01     1.0588E+02     1.6209E+02     1.9515E+02     7.7611E+07     1.1842E+01     3.3462E-01     3.2242E+09    -3.1414E+09    -6.0321E+08     4.0338E+08
     5.6169E-02    -3.0351E+01     1.0459E+02     1.6285E+02     1.9591E+02     7.6450E+07     1.1808E+01     3.3493E-01     3.2161E+09    -3.0949E+09    -7.7416E+08     4.0686E+08
     5.6357E-02    -3.6115E+01     1.0297E+02     1.6362E+02     1.9667E+02     7.5343E+07     1.1777E+01     3.3525E-01     3.2076E+09    -3.0384E+09    -9.4209E+08     4.1098E+08
     5.6545E-02    -4.1766E+01     1.0105E+02     1.6440E+02     1.9744E+02     7.4295E+07     1.1746E+01     3.3554E-01     3.1982E+09    -2.9718E+09    -1.1064E+09     4.1581E+08
     5.6733E-02    -4.7282E+01     9.8818E+01     1.6519E+02     1.9821E+02     7.3264E+07     1.1716E+01     3.3583E-01     3.1889E+09    -2.8963E+09    -1.2660E+09     4.2120E+08
     5.6921E-02    -5.2647E+01     9.6292E+01     1.6598E+02     1.9898E+02     7.2270E+07     1.1686E+01     3.3611E-01     3.1792E+09    -2.8118E+09    -1.4207E+09     4.2712E+08
     5.7109E-02    -5.7847E+01     9.3481E+01     1.6679E+02     1.9976E+02     7.1305E+07     1.1655E+01     3.3636E-01     3.1697E+09    -2.7193E+09    -1.5698E+09     4.3356E+08
     5.7297E-02    -6.2866E+01     9.0394E+01     1.6761E+02     2.0054E+02     7.0355E+07     1.1626E+01     3.3663E-01     3.1604E+09    -2.6194E+09    -1.7127E+09     4.4025E+08
     5.7485E-02    -6.7692E+01     8.7045E+01     1.6845E+02     2.0133E+02     6.9399E+07     1.1594E+01     3.3691E-01     3.1516E+09    -2.5128E+09    -1.8490E+09     4.4704E+08
     5.7673E-02    -7.2310E+01     8.3447E+01     1.6929E+02     2.0212E+02     6.8442E+07     1.1560E+01     3.3718E-01     3.1432E+09    -2.4002E+09    -1.9782E+09     4.5370E+08
     5.7861E-02    -7.6710E+01     7.9615E+01     1.7015E+02     2.0292E+02     6.7488E+07     1.1526E+01     3.3743E-01     3.1352E+09    -2.2821E+09    -2.1000E+09     4.5994E+08
     5.8049E-02    -8.0884E+01     7.5559E+01     1.7102E+02     2.0372E+02     6.6514E+07     1.1491E+01     3.3770E-01     3.1278E+09    -2.1594E+09    -2.2144E+09     4.6550E+08
     5.8237E-02    -8.4824E+01     7.1297E+01     1.7190E+02     2.0452E+02     6.5521E+07     1.1454E+01     3.3796E-01     3.1212E+09    -2.0328E+09    -2.3212E+09     4.7028E+08
     5.8425E-02    -8.8522E+01     6.6840E+01     1.7279E+02     2.0533E+02     6.4499E+07     1.1416E+01     3.3823E-01     3.1152E+09    -1.9028E+09    -2.4205E+09     4.7433E+08
     5.8613E-02    -9.1974E+01     6.2204E+01     1.7368E+02     2.0614E+02     6.3446E+07     1.1377E+01     3.3848E-01     3.1098E+09    -1.7698E+09    -2.5121E+09     4.7752E+08
     5.8801E-02    -9.5173E+01     5.7403E+01     1.7458E+02     2.0696E+02     6.2361E+07     1.1337E+01     3.3876E-01     3.1053E+09    -1.6345E+09    -2.5964E+09     4.8010E+08
     5.8988E-02    -9.8115E+01     5.2452E+01     1.7549E+02     2.0778E+02     6.1236E+07     1.1295E+01     3.3903E-01     3.1016E+09    -1.4973E+09    -2.6731E+09     4.8200E+08
     5.9176E-02    -1.0080E+02     4.7361E+01     1.7640E+02     2.0861E+02     6.0061E+07     1.1250E+01     3.3928E-01     3.0985E+09    -1.3585E+09    -2.7426E+09     4.8343E+08
     5.9364E-02    -1.0322E+02     4.2147E+01     1.7731E+02     2.0945E+02     5.8853E+07     1.1203E+01     3.3956E-01     3.0966E+09    -1.2188E+09    -2.8052E+09     4.8446E+08
     5.9552E-02    -1.0538E+02     3.6824E+01     1.7822E+02     2.1029E+02     5.7597E+07     1.1154E+01     3.3983E-01     3.0953E+09    -1.0786E+09    -2.8605E+09     4.8506E+08
     5.9740E-02    -1.0727E+02     3.1402E+01     1.7913E+02     2.1114E+02     5.6315E+07     1.1105E+01     3.4010E-01     3.0948E+09    -9.3805E+08    -2.9090E+09     4.8555E+08
     5.9928E-02    -1.0890E+02     2.5895E+01     1.8004E+02     2.1200E+02     5.5002E+07     1.1053E+01     3.4036E-01     3.0949E+09    -7.9700E+08    -2.9507E+09     4.8642E+08
     6.0116E-02    -1.1027E+02     2.0315E+01     1.8096E+02     2.1288E+02     5.3678E+07     1.1000E+01     3.4065E-01     3.0958E+09    -6.5565E+08    -2.9860E+09     4.8763E+08
     6.0304E-02    -1.1137E+02     1.4676E+01     1.8187E+02     2.1377E+02     5.2337E+07     1.0946E+01     3.4093E-01     3.0968E+09    -5.1455E+08    -3.0144E+09     4.8909E+08
     6.0492E-02    -1.1220E+02     8.9916E+00     1.8279E+02     2.1467E+02     5.1001E+07     1.0893E+01     3.4121E-01     3.0982E+09    -3.7334E+08    -3.0361E+09     4.9122E+08
     6.0680E-02    -1.1277E+02     3.2707E+00     1.8372E+02     2.1559E+02     4.9668E+07     1.0838E+01     3.4147E-01     3.0994E+09    -2.3174E+08    -3.0509E+09     4.9437E+08
     6.0868E-02    -1.1307E+02    -2.4707E+00     1.8465E+02     2.1654E+02     4.8349E+07     1.0783E+01     3.4178E-01     3.1009E+09    -9.0183E+07    -3.0593E+09     4.9816E+08
     6.1056E-02    -1.1311E+02    -8.2222E+00     1.8559E+02     2.1750E+02     4.7039E+07     1.0729E+01     3.4206E-01     3.1020E+09     5.1106E+07    -3.0606E+09     5.0243E+08
     6.1243E-02    -1.1288E+02    -1.3970E+01     1.8654E+02     2.1849E+02     4.5770E+07     1.0675E+01     3.4233E-01     3.1021E+09     1.9228E+08    -3.0542E+09     5.0780E+08
     6.1431E-02    -1.1239E+02    -1.9698E+01     1.8750E+02     2.1949E+02     4.4545E+07     1.0622E+01     3.4262E-01     3.1022E+09     3.3309E+08    -3.0411E+09     5.1424E+08
     6.1619E-02    -1.1163E+02    -2.5394E+01     1.8848E+02     2.2052E+02     4.3453E+07     1.0571E+01     3.4290E-01     3.1013E+09     4.7370E+08    -3.0201E+09     5.2188E+08
     6.1807E-02    -1.1061E+02    -3.1044E+01     1.8946E+02     2.2157E+02     4.2518E+07     1.0513E+01     3.4317E-01     3.0992E+09     6.1256E+08    -2.9915E+09     5.2968E+08
     6.1995E-02    -1.0933E+02    -3.6632E+01     1.9047E+02     2.2265E+02     4.1685E+07     1.0461E+01     3.4344E-01     3.0954E+09     7.4889E+08    -2.9549E+09     5.3742E+08
     6.2183E-02    -1.0780E+02    -4.2145E+01     1.9148E+02     2.2375E+02     4.0911E+07     1.0412E+01     3.4369E-01     3.0902E+09     8.8285E+08    -2.9109E+09     5.4481E+08
     6.2371E-02    -1.0601E+02    -4.7568E+01     1.9252E+02     2.2486E+02     4.0202E+07     1.0368E+01     3.4396E-01     3.0838E+09     1.0148E+09    -2.8590E+09     5.5325E+08
     6.2559E-02    -1.0398E+02    -5.2887E+01     1.9356E+02     2.2600E+02     3.9541E+07     1.0328E+01     3.4419E-01     3.0752E+09     1.1432E+09    -2.7989E+09     5.6220E+08
     6.2747E-02    -1.0172E+02    -5.8087E+01     1.9463E+02     2.2716E+02     3.8936E+07     1.0292E+01     3.4442E-01     3.0659E+09     1.2688E+09    -2.7318E+09     5.7200E+08
     6.2935E-02    -9.9216E+01    -6.3151E+01     1.9571E+02     2.2833E+02     3.8395E+07     1.0261E+01     3.4466E-01     3.0548E+09     1.3907E+09    -2.6567E+09     5.8257E+08
     6.3123E-02    -9.6491E+01    -6.8067E+01     1.9682E+02     2.2953E+02     3.7908E+07     1.0231E+01     3.4488E-01     3.0420E+09     1.5082E+09    -2.5742E+09     5.9370E+08
     6.3311E-02    -9.3551E+01    -7.2821E+01     1.9795E+02     2.3073E+02     3.7475E+07     1.0205E+01     3.4509E-01     3.0276E+09     1.6207E+09    -2.4847E+09     6.0500E+08
     6.3499E-02    -9.0403E+01    -7.7402E+01     1.9909E+02     2.3195E+02     3.7081E+07     1.0182E+01     3.4532E-01     3.0126E+09     1.7279E+09    -2.3896E+09     6.1621E+08
     6.3687E-02    -8.7061E+01    -8.1797E+01     2.0026E+02     2.3319E+02     3.6730E+07     1.0162E+01     3.4553E-01     2.9964E+09     1.8292E+09    -2.2888E+09     6.2725E+08
     6.3875E-02    -8.3533E+01    -8.6001E+01     2.0145E+02     2.3443E+02     3.6405E+07     1.0144E+01     3.4574E-01     2.9795E+09     1.9241E+09    -2.1836E+09     6.3800E+08
