           time        x coord        y coord        z coord         radius           dens           temp             ye            |v|             vx             vy             vz
            sec             km             km             km             km         g/cm^3             GK              -           cm/s           cm/s           cm/s           cm/s
     4.4405E-02     6.3859E+01    -1.3315E+02    -1.3966E+02     2.0325E+02     2.2594E+08     1.3163E+01     2.6572E-01     3.0418E+09     2.8005E+09     1.1235E+09    -3.8422E+08
     4.4578E-02     6.8670E+01    -1.3112E+02    -1.4033E+02     2.0396E+02     2.2248E+08     1.3129E+01     2.6610E-01     3.0346E+09     2.7528E+09     1.2165E+09    -3.8827E+08
     4.4752E-02     7.3416E+01    -1.2892E+02    -1.4101E+02     2.0468E+02     2.1890E+08     1.3093E+01     2.6647E-01     3.0274E+09     2.7023E+09     1.3072E+09    -3.9208E+08
     4.4927E-02     7.8090E+01    -1.2656E+02    -1.4169E+02     2.0541E+02     2.1561E+08     1.3058E+01     2.6682E-01     3.0208E+09     2.6494E+09     1.3963E+09    -3.9515E+08
     4.5102E-02     8.2683E+01    -1.2404E+02    -1.4239E+02     2.0615E+02     2.1208E+08     1.3021E+01     2.6721E-01     3.0140E+09     2.5937E+09     1.4826E+09    -3.9819E+08
     4.5277E-02     8.7188E+01    -1.2136E+02    -1.4309E+02     2.0690E+02     2.0852E+08     1.2983E+01     2.6759E-01     3.0071E+09     2.5354E+09     1.5664E+09    -4.0109E+08
     4.5453E-02     9.1596E+01    -1.1853E+02    -1.4380E+02     2.0765E+02     2.0518E+08     1.2947E+01     2.6795E-01     3.0007E+09     2.4750E+09     1.6480E+09    -4.0348E+08
     4.5629E-02     9.5895E+01    -1.1556E+02    -1.4451E+02     2.0841E+02     2.0167E+08     1.2909E+01     2.6833E-01     2.9942E+09     2.4123E+09     1.7265E+09    -4.0601E+08
     4.5805E-02     1.0008E+02    -1.1246E+02    -1.4523E+02     2.0918E+02     1.9814E+08     1.2869E+01     2.6871E-01     2.9876E+09     2.3477E+09     1.8021E+09    -4.0810E+08
     4.5981E-02     1.0416E+02    -1.0922E+02    -1.4595E+02     2.0995E+02     1.9489E+08     1.2831E+01     2.6907E-01     2.9816E+09     2.2816E+09     1.8752E+09    -4.1006E+08
     4.6158E-02     1.0812E+02    -1.0586E+02    -1.4667E+02     2.1073E+02     1.9146E+08     1.2790E+01     2.6944E-01     2.9753E+09     2.2134E+09     1.9451E+09    -4.1194E+08
     4.6334E-02     1.1196E+02    -1.0237E+02    -1.4740E+02     2.1152E+02     1.8805E+08     1.2749E+01     2.6983E-01     2.9693E+09     2.1441E+09     2.0120E+09    -4.1426E+08
     4.6511E-02     1.1569E+02    -9.8758E+01    -1.4813E+02     2.1232E+02     1.8475E+08     1.2707E+01     2.7020E-01     2.9633E+09     2.0731E+09     2.0760E+09    -4.1689E+08
     4.6687E-02     1.1928E+02    -9.5037E+01    -1.4887E+02     2.1313E+02     1.8171E+08     1.2666E+01     2.7057E-01     2.9577E+09     2.0012E+09     2.1375E+09    -4.1776E+08
     4.6864E-02     1.2275E+02    -9.1213E+01    -1.4961E+02     2.1394E+02     1.7855E+08     1.2622E+01     2.7094E-01     2.9517E+09     1.9278E+09     2.1955E+09    -4.1898E+08
     4.7040E-02     1.2609E+02    -8.7285E+01    -1.5035E+02     2.1476E+02     1.7542E+08     1.2579E+01     2.7131E-01     2.9457E+09     1.8535E+09     2.2506E+09    -4.1976E+08
     4.7217E-02     1.2930E+02    -8.3261E+01    -1.5109E+02     2.1559E+02     1.7232E+08     1.2536E+01     2.7168E-01     2.9396E+09     1.7782E+09     2.3027E+09    -4.2055E+08
     4.7393E-02     1.3237E+02    -7.9152E+01    -1.5184E+02     2.1643E+02     1.6935E+08     1.2495E+01     2.7203E-01     2.9340E+09     1.7023E+09     2.3523E+09    -4.2123E+08
     4.7570E-02     1.3531E+02    -7.4954E+01    -1.5258E+02     2.1727E+02     1.6631E+08     1.2453E+01     2.7239E-01     2.9279E+09     1.6253E+09     2.3985E+09    -4.2222E+08
     4.7747E-02     1.3812E+02    -7.0674E+01    -1.5333E+02     2.1813E+02     1.6330E+08     1.2410E+01     2.7276E-01     2.9218E+09     1.5478E+09     2.4417E+09    -4.2328E+08
     4.7924E-02     1.4079E+02    -6.6319E+01    -1.5408E+02     2.1900E+02     1.6034E+08     1.2367E+01     2.7311E-01     2.9156E+09     1.4697E+09     2.4820E+09    -4.2429E+08
     4.8101E-02     1.4332E+02    -6.1894E+01    -1.5483E+02     2.1987E+02     1.5753E+08     1.2328E+01     2.7344E-01     2.9094E+09     1.3909E+09     2.5197E+09    -4.2551E+08
     4.8278E-02     1.4570E+02    -5.7412E+01    -1.5558E+02     2.2075E+02     1.5471E+08     1.2288E+01     2.7380E-01     2.9028E+09     1.3118E+09     2.5540E+09    -4.2710E+08
     4.8454E-02     1.4795E+02    -5.2869E+01    -1.5634E+02     2.2165E+02     1.5196E+08     1.2249E+01     2.7415E-01     2.8959E+09     1.2321E+09     2.5854E+09    -4.2906E+08
     4.8631E-02     1.5006E+02    -4.8272E+01    -1.5710E+02     2.2255E+02     1.4926E+08     1.2210E+01     2.7451E-01     2.8888E+09     1.1520E+09     2.6138E+09    -4.3116E+08
     4.8808E-02     1.5203E+02    -4.3628E+01    -1.5786E+02     2.2346E+02     1.4676E+08     1.2173E+01     2.7484E-01     2.8815E+09     1.0716E+09     2.6396E+09    -4.3333E+08
     4.8985E-02     1.5385E+02    -3.8940E+01    -1.5863E+02     2.2439E+02     1.4426E+08     1.2137E+01     2.7518E-01     2.8737E+09     9.9087E+08     2.6620E+09    -4.3590E+08
     4.9161E-02     1.5553E+02    -3.4216E+01    -1.5941E+02     2.2532E+02     1.4183E+08     1.2102E+01     2.7554E-01     2.8657E+09     9.0997E+08     2.6817E+09    -4.3888E+08
     4.9338E-02     1.5707E+02    -2.9458E+01    -1.6018E+02     2.2627E+02     1.3949E+08     1.2068E+01     2.7584E-01     2.8572E+09     8.2875E+08     2.6983E+09    -4.4227E+08
     4.9515E-02     1.5846E+02    -2.4673E+01    -1.6097E+02     2.2722E+02     1.3731E+08     1.2035E+01     2.7618E-01     2.8486E+09     7.4751E+08     2.7124E+09    -4.4572E+08
     4.9692E-02     1.5971E+02    -1.9865E+01    -1.6176E+02     2.2819E+02     1.3512E+08     1.2002E+01     2.7650E-01     2.8395E+09     6.6632E+08     2.7233E+09    -4.4972E+08
     4.9869E-02     1.6082E+02    -1.5044E+01    -1.6256E+02     2.2916E+02     1.3301E+08     1.1970E+01     2.7684E-01     2.8303E+09     5.8542E+08     2.7316E+09    -4.5397E+08
     5.0046E-02     1.6178E+02    -1.0207E+01    -1.6337E+02     2.3014E+02     1.3096E+08     1.1940E+01     2.7716E-01     2.8207E+09     5.0470E+08     2.7371E+09    -4.5862E+08
     5.0223E-02     1.6260E+02    -5.3640E+00    -1.6418E+02     2.3114E+02     1.2896E+08     1.1910E+01     2.7748E-01     2.8110E+09     4.2435E+08     2.7398E+09    -4.6376E+08
     5.0399E-02     1.6328E+02    -5.1870E-01    -1.6501E+02     2.3214E+02     1.2699E+08     1.1880E+01     2.7781E-01     2.8012E+09     3.4458E+08     2.7400E+09    -4.6931E+08
     5.0576E-02     1.6382E+02     4.3248E+00    -1.6584E+02     2.3315E+02     1.2516E+08     1.1851E+01     2.7809E-01     2.7915E+09     2.6531E+08     2.7380E+09    -4.7476E+08
     5.0753E-02     1.6422E+02     9.1627E+00    -1.6669E+02     2.3417E+02     1.2326E+08     1.1821E+01     2.7841E-01     2.7816E+09     1.8702E+08     2.7333E+09    -4.8077E+08
     5.0930E-02     1.6449E+02     1.3992E+01    -1.6754E+02     2.3521E+02     1.2139E+08     1.1791E+01     2.7872E-01     2.7716E+09     1.0964E+08     2.7263E+09    -4.8688E+08
     5.1107E-02     1.6461E+02     1.8805E+01    -1.6841E+02     2.3625E+02     1.1954E+08     1.1761E+01     2.7902E-01     2.7617E+09     3.3256E+07     2.7171E+09    -4.9332E+08
     5.1284E-02     1.6460E+02     2.3601E+01    -1.6929E+02     2.3730E+02     1.1769E+08     1.1732E+01     2.7933E-01     2.7519E+09    -4.2083E+07     2.7058E+09    -4.9999E+08
     5.1472E-02     1.6445E+02     2.8673E+01    -1.7023E+02     2.3842E+02     1.1570E+08     1.1699E+01     2.7963E-01     2.7416E+09    -1.2083E+08     2.6916E+09    -5.0657E+08
     5.1659E-02     1.6415E+02     3.3717E+01    -1.7119E+02     2.3956E+02     1.1367E+08     1.1665E+01     2.7995E-01     2.7315E+09    -1.9839E+08     2.6752E+09    -5.1460E+08
     5.1847E-02     1.6371E+02     3.8728E+01    -1.7217E+02     2.4071E+02     1.1180E+08     1.1633E+01     2.8027E-01     2.7214E+09    -2.7383E+08     2.6567E+09    -5.2260E+08
     5.2035E-02     1.6312E+02     4.3700E+01    -1.7316E+02     2.4187E+02     1.1001E+08     1.1601E+01     2.8058E-01     2.7117E+09    -3.4830E+08     2.6362E+09    -5.3134E+08
     5.2223E-02     1.6240E+02     4.8633E+01    -1.7416E+02     2.4304E+02     1.0835E+08     1.1560E+01     2.8088E-01     2.7017E+09    -4.2120E+08     2.6138E+09    -5.3856E+08
     5.2411E-02     1.6154E+02     5.3521E+01    -1.7518E+02     2.4423E+02     1.0676E+08     1.1522E+01     2.8119E-01     2.6916E+09    -4.9279E+08     2.5894E+09    -5.4521E+08
     5.2599E-02     1.6055E+02     5.8363E+01    -1.7621E+02     2.4542E+02     1.0518E+08     1.1484E+01     2.8149E-01     2.6816E+09    -5.6282E+08     2.5632E+09    -5.5147E+08
     5.2787E-02     1.5942E+02     6.3152E+01    -1.7725E+02     2.4662E+02     1.0362E+08     1.1446E+01     2.8179E-01     2.6715E+09    -6.3121E+08     2.5354E+09    -5.5724E+08
     5.2975E-02     1.5818E+02     6.7888E+01    -1.7830E+02     2.4783E+02     1.0208E+08     1.1408E+01     2.8209E-01     2.6615E+09    -6.9789E+08     2.5060E+09    -5.6274E+08
     5.3163E-02     1.5680E+02     7.2568E+01    -1.7936E+02     2.4905E+02     1.0055E+08     1.1371E+01     2.8238E-01     2.6516E+09    -7.6291E+08     2.4751E+09    -5.6804E+08
     5.3351E-02     1.5531E+02     7.7189E+01    -1.8044E+02     2.5027E+02     9.9023E+07     1.1334E+01     2.8266E-01     2.6418E+09    -8.2624E+08     2.4429E+09    -5.7325E+08
     5.3538E-02     1.5370E+02     8.1747E+01    -1.8152E+02     2.5150E+02     9.7507E+07     1.1298E+01     2.8294E-01     2.6322E+09    -8.8783E+08     2.4095E+09    -5.7850E+08
     5.3726E-02     1.5197E+02     8.6243E+01    -1.8261E+02     2.5275E+02     9.6004E+07     1.1263E+01     2.8323E-01     2.6228E+09    -9.4770E+08     2.3749E+09    -5.8370E+08
     5.3914E-02     1.5014E+02     9.0671E+01    -1.8371E+02     2.5399E+02     9.4493E+07     1.1225E+01     2.8350E-01     2.6135E+09    -1.0057E+09     2.3393E+09    -5.8877E+08
     5.4102E-02     1.4819E+02     9.5033E+01    -1.8482E+02     2.5525E+02     9.2991E+07     1.1189E+01     2.8378E-01     2.6044E+09    -1.0619E+09     2.3028E+09    -5.9358E+08
     5.4290E-02     1.4615E+02     9.9326E+01    -1.8594E+02     2.5651E+02     9.1486E+07     1.1153E+01     2.8405E-01     2.5954E+09    -1.1164E+09     2.2654E+09    -5.9824E+08
     5.4478E-02     1.4400E+02     1.0355E+02    -1.8707E+02     2.5779E+02     8.9950E+07     1.1116E+01     2.8434E-01     2.5865E+09    -1.1689E+09     2.2271E+09    -6.0286E+08
     5.4666E-02     1.4175E+02     1.0770E+02    -1.8821E+02     2.5907E+02     8.8441E+07     1.1080E+01     2.8460E-01     2.5780E+09    -1.2201E+09     2.1882E+09    -6.0747E+08
     5.4854E-02     1.3941E+02     1.1177E+02    -1.8935E+02     2.6036E+02     8.6912E+07     1.1043E+01     2.8487E-01     2.5695E+09    -1.2696E+09     2.1485E+09    -6.1194E+08
     5.5042E-02     1.3698E+02     1.1577E+02    -1.9051E+02     2.6165E+02     8.5382E+07     1.1006E+01     2.8514E-01     2.5612E+09    -1.3174E+09     2.1083E+09    -6.1606E+08
     5.5230E-02     1.3446E+02     1.1970E+02    -1.9167E+02     2.6295E+02     8.3837E+07     1.0968E+01     2.8539E-01     2.5530E+09    -1.3636E+09     2.0674E+09    -6.1994E+08
     5.5418E-02     1.3186E+02     1.2354E+02    -1.9284E+02     2.6427E+02     8.2284E+07     1.0931E+01     2.8565E-01     2.5450E+09    -1.4083E+09     2.0260E+09    -6.2372E+08
     5.5606E-02     1.2917E+02     1.2731E+02    -1.9401E+02     2.6558E+02     8.0705E+07     1.0893E+01     2.8592E-01     2.5370E+09    -1.4513E+09     1.9840E+09    -6.2777E+08
     5.5794E-02     1.2641E+02     1.3100E+02    -1.9520E+02     2.6691E+02     7.9138E+07     1.0855E+01     2.8618E-01     2.5293E+09    -1.4928E+09     1.9416E+09    -6.3163E+08
     5.5981E-02     1.2356E+02     1.3461E+02    -1.9639E+02     2.6825E+02     7.7571E+07     1.0815E+01     2.8642E-01     2.5217E+09    -1.5328E+09     1.8989E+09    -6.3529E+08
     5.6169E-02     1.2065E+02     1.3814E+02    -1.9759E+02     2.6959E+02     7.6000E+07     1.0777E+01     2.8668E-01     2.5142E+09    -1.5713E+09     1.8558E+09    -6.3897E+08
     5.6357E-02     1.1766E+02     1.4158E+02    -1.9879E+02     2.7094E+02     7.4429E+07     1.0739E+01     2.8692E-01     2.5069E+09    -1.6083E+09     1.8124E+09    -6.4286E+08
     5.6545E-02     1.1460E+02     1.4495E+02    -2.0000E+02     2.7230E+02     7.2828E+07     1.0700E+01     2.8718E-01     2.4998E+09    -1.6437E+09     1.7686E+09    -6.4744E+08
     5.6733E-02     1.1148E+02     1.4823E+02    -2.0122E+02     2.7366E+02     7.1238E+07     1.0659E+01     2.8742E-01     2.4927E+09    -1.6776E+09     1.7248E+09    -6.5129E+08
     5.6921E-02     1.0830E+02     1.5143E+02    -2.0245E+02     2.7504E+02     6.9625E+07     1.0619E+01     2.8767E-01     2.4858E+09    -1.7100E+09     1.6806E+09    -6.5636E+08
     5.7109E-02     1.0505E+02     1.5455E+02    -2.0369E+02     2.7643E+02     6.8207E+07     1.0584E+01     2.8789E-01     2.4795E+09    -1.7406E+09     1.6371E+09    -6.6204E+08
     5.7297E-02     1.0175E+02     1.5759E+02    -2.0494E+02     2.7783E+02     6.6935E+07     1.0529E+01     2.8812E-01     2.4730E+09    -1.7701E+09     1.5928E+09    -6.6719E+08
     5.7485E-02     9.8398E+01     1.6054E+02    -2.0620E+02     2.7924E+02     6.5760E+07     1.0477E+01     2.8836E-01     2.4658E+09    -1.7983E+09     1.5482E+09    -6.7048E+08
     5.7673E-02     9.4993E+01     1.6341E+02    -2.0746E+02     2.8065E+02     6.4668E+07     1.0430E+01     2.8859E-01     2.4584E+09    -1.8252E+09     1.5036E+09    -6.7203E+08
     5.7861E-02     9.1539E+01     1.6619E+02    -2.0872E+02     2.8207E+02     6.3590E+07     1.0384E+01     2.8882E-01     2.4510E+09    -1.8506E+09     1.4590E+09    -6.7345E+08
     5.8049E-02     8.8039E+01     1.6889E+02    -2.0999E+02     2.8350E+02     6.2518E+07     1.0339E+01     2.8905E-01     2.4436E+09    -1.8748E+09     1.4144E+09    -6.7494E+08
     5.8237E-02     8.4494E+01     1.7151E+02    -2.1126E+02     2.8493E+02     6.1449E+07     1.0295E+01     2.8927E-01     2.4362E+09    -1.8975E+09     1.3698E+09    -6.7668E+08
     5.8425E-02     8.0908E+01     1.7404E+02    -2.1254E+02     2.8637E+02     6.0399E+07     1.0252E+01     2.8950E-01     2.4290E+09    -1.9191E+09     1.3253E+09    -6.7885E+08
     5.8613E-02     7.7282E+01     1.7649E+02    -2.1381E+02     2.8781E+02     5.9354E+07     1.0208E+01     2.8972E-01     2.4218E+09    -1.9393E+09     1.2808E+09    -6.8105E+08
     5.8801E-02     7.3620E+01     1.7885E+02    -2.1510E+02     2.8926E+02     5.8318E+07     1.0165E+01     2.8995E-01     2.4145E+09    -1.9581E+09     1.2365E+09    -6.8332E+08
     5.8988E-02     6.9924E+01     1.8113E+02    -2.1638E+02     2.9072E+02     5.7289E+07     1.0123E+01     2.9016E-01     2.4074E+09    -1.9758E+09     1.1923E+09    -6.8575E+08
     5.9176E-02     6.6195E+01     1.8333E+02    -2.1767E+02     2.9219E+02     5.6268E+07     1.0083E+01     2.9037E-01     2.4004E+09    -1.9923E+09     1.1483E+09    -6.8860E+08
     5.9364E-02     6.2437E+01     1.8545E+02    -2.1897E+02     2.9366E+02     5.5261E+07     1.0043E+01     2.9058E-01     2.3934E+09    -2.0075E+09     1.1043E+09    -6.9188E+08
     5.9552E-02     5.8652E+01     1.8748E+02    -2.2027E+02     2.9514E+02     5.4257E+07     1.0002E+01     2.9080E-01     2.3864E+09    -2.0215E+09     1.0606E+09    -6.9550E+08
     5.9740E-02     5.4841E+01     1.8944E+02    -2.2158E+02     2.9664E+02     5.3274E+07     9.9627E+00     2.9100E-01     2.3794E+09    -2.0344E+09     1.0172E+09    -6.9901E+08
     5.9928E-02     5.1007E+01     1.9131E+02    -2.2290E+02     2.9813E+02     5.2300E+07     9.9245E+00     2.9121E-01     2.3725E+09    -2.0461E+09     9.7397E+08    -7.0274E+08
     6.0116E-02     4.7151E+01     1.9310E+02    -2.2422E+02     2.9964E+02     5.1328E+07     9.8871E+00     2.9141E-01     2.3655E+09    -2.0565E+09     9.3106E+08    -7.0678E+08
     6.0304E-02     4.3277E+01     1.9481E+02    -2.2556E+02     3.0116E+02     5.0380E+07     9.8509E+00     2.9161E-01     2.3588E+09    -2.0661E+09     8.8834E+08    -7.1127E+08
     6.0492E-02     3.9388E+01     1.9644E+02    -2.2690E+02     3.0269E+02     4.9436E+07     9.8135E+00     2.9181E-01     2.3520E+09    -2.0745E+09     8.4608E+08    -7.1590E+08
     6.0680E-02     3.5482E+01     1.9799E+02    -2.2825E+02     3.0423E+02     4.8501E+07     9.7772E+00     2.9202E-01     2.3451E+09    -2.0817E+09     8.0418E+08    -7.2057E+08
     6.0868E-02     3.1565E+01     1.9946E+02    -2.2961E+02     3.0578E+02     4.7575E+07     9.7419E+00     2.9221E-01     2.3384E+09    -2.0881E+09     7.6274E+08    -7.2532E+08
     6.1056E-02     2.7635E+01     2.0085E+02    -2.3097E+02     3.0733E+02     4.6655E+07     9.7076E+00     2.9240E-01     2.3317E+09    -2.0934E+09     7.2176E+08    -7.3046E+08
     6.1243E-02     2.3697E+01     2.0217E+02    -2.3235E+02     3.0890E+02     4.5678E+07     9.6704E+00     2.9258E-01     2.3252E+09    -2.0975E+09     6.8115E+08    -7.3675E+08
     6.1431E-02     1.9752E+01     2.0341E+02    -2.3374E+02     3.1049E+02     4.4926E+07     9.6326E+00     2.9278E-01     2.3193E+09    -2.1012E+09     6.4171E+08    -7.4311E+08
     6.1619E-02     1.5801E+01     2.0458E+02    -2.3515E+02     3.1208E+02     4.4233E+07     9.5840E+00     2.9297E-01     2.3127E+09    -2.1039E+09     6.0227E+08    -7.4794E+08
     6.1807E-02     1.1844E+01     2.0568E+02    -2.3655E+02     3.1369E+02     4.3609E+07     9.5413E+00     2.9315E-01     2.3055E+09    -2.1060E+09     5.6294E+08    -7.5030E+08
     6.1995E-02     7.8852E+00     2.0670E+02    -2.3797E+02     3.1530E+02     4.2992E+07     9.4999E+00     2.9333E-01     2.2983E+09    -2.1074E+09     5.2420E+08    -7.5243E+08
     6.2183E-02     3.9243E+00     2.0765E+02    -2.3938E+02     3.1692E+02     4.2375E+07     9.4592E+00     2.9351E-01     2.2911E+09    -2.1080E+09     4.8603E+08    -7.5465E+08
     6.2371E-02    -3.7499E-02     2.0853E+02    -2.4080E+02     3.1854E+02     4.1768E+07     9.4185E+00     2.9368E-01     2.2843E+09    -2.1081E+09     4.4837E+08    -7.5709E+08
     6.2559E-02    -3.9990E+00     2.0933E+02    -2.4223E+02     3.2017E+02     4.1159E+07     9.3772E+00     2.9387E-01     2.2774E+09    -2.1072E+09     4.1146E+08    -7.5952E+08
     6.2747E-02    -7.9593E+00     2.1007E+02    -2.4366E+02     3.2181E+02     4.0554E+07     9.3366E+00     2.9403E-01     2.2707E+09    -2.1060E+09     3.7524E+08    -7.6179E+08
     6.2935E-02    -1.1915E+01     2.1075E+02    -2.4509E+02     3.2346E+02     3.9945E+07     9.2968E+00     2.9421E-01     2.2641E+09    -2.1040E+09     3.3969E+08    -7.6416E+08
     6.3123E-02    -1.5868E+01     2.1135E+02    -2.4653E+02     3.2511E+02     3.9332E+07     9.2575E+00     2.9438E-01     2.2577E+09    -2.1016E+09     3.0478E+08    -7.6670E+08
     6.3311E-02    -1.9813E+01     2.1189E+02    -2.4797E+02     3.2677E+02     3.8719E+07     9.2189E+00     2.9455E-01     2.2515E+09    -2.0986E+09     2.7049E+08    -7.6955E+08
     6.3499E-02    -2.3754E+01     2.1237E+02    -2.4942E+02     3.2844E+02     3.8105E+07     9.1798E+00     2.9472E-01     2.2455E+09    -2.0950E+09     2.3678E+08    -7.7281E+08
     6.3687E-02    -2.7686E+01     2.1278E+02    -2.5088E+02     3.3012E+02     3.7495E+07     9.1402E+00     2.9488E-01     2.2396E+09    -2.0910E+09     2.0378E+08    -7.7595E+08
     6.3875E-02    -3.1612E+01     2.1313E+02    -2.5234E+02     3.3181E+02     3.6884E+07     9.1015E+00     2.9505E-01     2.2337E+09    -2.0864E+09     1.7144E+08    -7.7915E+08
     6.4062E-02    -3.5528E+01     2.1343E+02    -2.5381E+02     3.3351E+02     3.6271E+07     9.0634E+00     2.9521E-01     2.2280E+09    -2.0814E+09     1.3970E+08    -7.8250E+08
