     R_cyl [km]         z [km]        T [MeV]
    5.00000E-01    2.11136E+01    3.62857E+00
    1.50000E+00    2.09822E+01    3.83416E+00
    2.50000E+00    2.08392E+01    4.12365E+00
    3.50000E+00    2.07419E+01    4.29157E+00
    4.50000E+00    2.06477E+01    4.28682E+00
    5.50000E+00    2.05364E+01    4.19455E+00
    6.50000E+00    2.05212E+01    3.83482E+00
    7.50000E+00    2.07054E+01    2.50195E+00
    8.50000E+00    2.04508E+01    3.32003E+00
    9.50000E+00    2.02000E+01    3.84885E+00
    1.05000E+01    2.00065E+01    3.72102E+00
    1.15000E+01    2.00246E+01    2.90839E+00
    1.25000E+01    1.97774E+01    2.37916E+00
    1.35000E+01    1.93987E+01    3.35827E+00
    1.45000E+01    1.92201E+01    3.12047E+00
    1.55000E+01    1.89675E+01    2.56330E+00
    1.65000E+01    1.86093E+01    3.29964E+00
    1.75000E+01    1.83407E+01    3.41404E+00
    1.85000E+01    1.82101E+01    3.58952E+00
    1.95000E+01    1.82648E+01    3.70018E+00
    2.05000E+01    1.87442E+01    3.66914E+00
    2.15000E+01    1.95893E+01    3.48493E+00
    2.25000E+01    2.05958E+01    3.32193E+00
    2.35000E+01    2.17370E+01    3.19361E+00
    2.45000E+01    2.29396E+01    3.09269E+00
    2.55000E+01    2.41821E+01    3.00937E+00
    2.65000E+01    2.54474E+01    2.93790E+00
    2.75000E+01    2.67583E+01    2.87492E+00
    2.85000E+01    2.80515E+01    2.82433E+00
    2.95000E+01    2.93403E+01    2.78122E+00
    3.05000E+01    3.06263E+01    2.74067E+00
    3.15000E+01    3.19110E+01    2.69587E+00
    3.25000E+01    3.31700E+01    2.65659E+00
    3.35000E+01    3.43988E+01    2.62091E+00
    3.45000E+01    3.56359E+01    2.58946E+00
    3.55000E+01    3.68602E+01    2.55998E+00
    3.65000E+01    3.80606E+01    2.53227E+00
    3.75000E+01    3.92388E+01    2.50305E+00
    3.85000E+01    4.04058E+01    2.47362E+00
    3.95000E+01    4.15685E+01    2.44451E+00
    4.05000E+01    4.27211E+01    2.41660E+00
    4.15000E+01    4.38598E+01    2.39069E+00
    4.25000E+01    4.49838E+01    2.36625E+00
    4.35000E+01    4.60993E+01    2.34326E+00
    4.45000E+01    4.72039E+01    2.32166E+00
    4.55000E+01    4.82917E+01    2.30169E+00
    4.65000E+01    4.93715E+01    2.27838E+00
    4.75000E+01    5.04435E+01    2.25496E+00
    4.85000E+01    5.15074E+01    2.23192E+00
    4.95000E+01    5.25606E+01    2.21033E+00
    5.05000E+01    5.36032E+01    2.19006E+00
    5.15000E+01    5.46434E+01    2.17055E+00
    5.25000E+01    5.56709E+01    2.15236E+00
    5.35000E+01    5.66867E+01    2.13500E+00
    5.45000E+01    5.76887E+01    2.11862E+00
    5.55000E+01    5.86827E+01    2.10211E+00
    5.65000E+01    5.96725E+01    2.08641E+00
    5.75000E+01    6.06477E+01    2.06848E+00
    5.85000E+01    6.16153E+01    2.05052E+00
    5.95000E+01    6.25708E+01    2.03401E+00
    6.05000E+01    6.35164E+01    2.01782E+00
    6.15000E+01    6.44569E+01    2.00215E+00
    6.25000E+01    6.53832E+01    1.98744E+00
    6.35000E+01    6.63026E+01    1.97330E+00
    6.45000E+01    6.72122E+01    1.95987E+00
    6.55000E+01    6.81117E+01    1.94669E+00
    6.65000E+01    6.89988E+01    1.93409E+00
    6.75000E+01    6.98696E+01    1.92240E+00
    6.85000E+01    7.07374E+01    1.91034E+00
    6.95000E+01    7.15922E+01    1.89858E+00
    7.05000E+01    7.24366E+01    1.88441E+00
    7.15000E+01    7.32737E+01    1.87157E+00
    7.25000E+01    7.40979E+01    1.85913E+00
    7.35000E+01    7.49133E+01    1.84703E+00
    7.45000E+01    7.57136E+01    1.83538E+00
    7.55000E+01    7.64994E+01    1.82438E+00
    7.65000E+01    7.72845E+01    1.81358E+00
    7.75000E+01    7.80555E+01    1.80291E+00
    7.85000E+01    7.88126E+01    1.79295E+00
    7.95000E+01    7.95527E+01    1.78322E+00
    8.05000E+01    8.02906E+01    1.77360E+00
    8.15000E+01    8.10190E+01    1.76458E+00
    8.25000E+01    8.17322E+01    1.75569E+00
    8.35000E+01    8.24314E+01    1.74719E+00
    8.45000E+01    8.31246E+01    1.73839E+00
    8.55000E+01    8.38046E+01    1.72942E+00
    8.65000E+01    8.44694E+01    1.71946E+00
    8.75000E+01    8.51315E+01    1.71014E+00
    8.85000E+01    8.57756E+01    1.70089E+00
    8.95000E+01    8.64066E+01    1.69226E+00
    9.05000E+01    8.70337E+01    1.68349E+00
    9.15000E+01    8.76396E+01    1.67528E+00
    9.25000E+01    8.82388E+01    1.66712E+00
    9.35000E+01    8.88256E+01    1.65923E+00
    9.45000E+01    8.93997E+01    1.65156E+00
    9.55000E+01    8.99656E+01    1.64405E+00
    9.65000E+01    9.05101E+01    1.63685E+00
    9.75000E+01    9.10533E+01    1.62975E+00
    9.85000E+01    9.15763E+01    1.62285E+00
    9.95000E+01    9.20962E+01    1.61614E+00
    1.00500E+02    9.25947E+01    1.60957E+00
    1.01500E+02    9.30871E+01    1.60326E+00
    1.02500E+02    9.35616E+01    1.59704E+00
    1.03500E+02    9.40313E+01    1.59112E+00
    1.04500E+02    9.44801E+01    1.58532E+00
    1.05500E+02    9.49221E+01    1.57869E+00
    1.06500E+02    9.53496E+01    1.57209E+00
    1.07500E+02    9.57686E+01    1.56570E+00
    1.08500E+02    9.61714E+01    1.55952E+00
    1.09500E+02    9.65610E+01    1.55346E+00
    1.10500E+02    9.69421E+01    1.54754E+00
    1.11500E+02    9.73098E+01    1.54171E+00
    1.12500E+02    9.76649E+01    1.53599E+00
    1.13500E+02    9.80081E+01    1.53042E+00
    1.14500E+02    9.83378E+01    1.52493E+00
    1.15500E+02    9.86538E+01    1.51954E+00
    1.16500E+02    9.89638E+01    1.51424E+00
    1.17500E+02    9.92538E+01    1.50906E+00
    1.18500E+02    9.95326E+01    1.50395E+00
    1.19500E+02    9.98045E+01    1.49893E+00
    1.20500E+02    1.00056E+02    1.49403E+00
    1.21500E+02    1.00299E+02    1.48919E+00
    1.22500E+02    1.00522E+02    1.48447E+00
    1.23500E+02    1.00743E+02    1.47977E+00
    1.24500E+02    1.00946E+02    1.47518E+00
    1.25500E+02    1.01133E+02    1.47066E+00
    1.26500E+02    1.01311E+02    1.46621E+00
    1.27500E+02    1.01468E+02    1.46184E+00
    1.28500E+02    1.01621E+02    1.45750E+00
    1.29500E+02    1.01755E+02    1.45323E+00
    1.30500E+02    1.01877E+02    1.44911E+00
    1.31500E+02    1.01985E+02    1.44524E+00
    1.32500E+02    1.02076E+02    1.44155E+00
    1.33500E+02    1.02159E+02    1.43818E+00
    1.34500E+02    1.02223E+02    1.43488E+00
    1.35500E+02    1.02280E+02    1.43157E+00
    1.36500E+02    1.02324E+02    1.42828E+00
    1.37500E+02    1.02352E+02    1.42503E+00
    1.38500E+02    1.02372E+02    1.42180E+00
    1.39500E+02    1.02376E+02    1.41863E+00
    1.40500E+02    1.02373E+02    1.41545E+00
    1.41500E+02    1.02352E+02    1.41232E+00
    1.42500E+02    1.02321E+02    1.40922E+00
    1.43500E+02    1.02279E+02    1.40615E+00
    1.44500E+02    1.02220E+02    1.40312E+00
    1.45500E+02    1.02155E+02    1.40009E+00
    1.46500E+02    1.02069E+02    1.39713E+00
    1.47500E+02    1.01975E+02    1.39419E+00
    1.48500E+02    1.01866E+02    1.39127E+00
    1.49500E+02    1.01742E+02    1.38840E+00
    1.50500E+02    1.01608E+02    1.38554E+00
    1.51500E+02    1.01456E+02    1.38274E+00
    1.52500E+02    1.01299E+02    1.37989E+00
    1.53500E+02    1.01121E+02    1.37712E+00
    1.54500E+02    1.00932E+02    1.37437E+00
    1.55500E+02    1.00729E+02    1.37165E+00
    1.56500E+02    1.00506E+02    1.36902E+00
    1.57500E+02    1.00281E+02    1.36630E+00
    1.58500E+02    1.00033E+02    1.36366E+00
    1.59500E+02    9.97752E+01    1.36105E+00
    1.60500E+02    9.94989E+01    1.35849E+00
    1.61500E+02    9.92128E+01    1.35593E+00
    1.62500E+02    9.89116E+01    1.35338E+00
    1.63500E+02    9.85896E+01    1.35092E+00
    1.64500E+02    9.82609E+01    1.34842E+00
    1.65500E+02    9.79152E+01    1.34597E+00
    1.66500E+02    9.75502E+01    1.34357E+00
    1.67500E+02    9.71754E+01    1.34115E+00
    1.68500E+02    9.67809E+01    1.33881E+00
    1.69500E+02    9.63742E+01    1.33646E+00
    1.70500E+02    9.59522E+01    1.33414E+00
    1.71500E+02    9.55107E+01    1.33188E+00
    1.72500E+02    9.50583E+01    1.32958E+00
    1.73500E+02    9.45869E+01    1.32737E+00
    1.74500E+02    9.41005E+01    1.32509E+00
    1.75500E+02    9.35933E+01    1.32292E+00
    1.76500E+02    9.30766E+01    1.32072E+00
    1.77500E+02    9.25387E+01    1.31859E+00
    1.78500E+02    9.19873E+01    1.31665E+00
    1.79500E+02    9.14135E+01    1.31475E+00
    1.80500E+02    9.08290E+01    1.31286E+00
    1.81500E+02    9.02290E+01    1.31096E+00
    1.82500E+02    8.96135E+01    1.30906E+00
    1.83500E+02    8.14226E+01    1.33193E+00
    1.84500E+02    8.02883E+01    1.33096E+00
    1.85500E+02    7.91227E+01    1.33004E+00
    1.86500E+02    7.79250E+01    1.32911E+00
    1.87500E+02    7.66923E+01    1.32822E+00
    1.88500E+02    7.54255E+01    1.32734E+00
    1.89500E+02    7.41241E+01    1.32640E+00
    1.90500E+02    7.27824E+01    1.32550E+00
    1.91500E+02    7.14005E+01    1.32460E+00
    1.92500E+02    6.99827E+01    1.32375E+00
    1.93500E+02    6.85172E+01    1.32295E+00
    1.94500E+02    6.70142E+01    1.32219E+00
    1.95500E+02    6.54644E+01    1.32145E+00
    1.96500E+02    6.38685E+01    1.32068E+00
    1.97500E+02    6.22220E+01    1.31997E+00
    1.98500E+02    6.05221E+01    1.31926E+00
    1.99500E+02    5.87690E+01    1.31858E+00
    2.00500E+02    5.69572E+01    1.31794E+00
    2.01500E+02    5.50853E+01    1.31737E+00
    2.02500E+02    5.31475E+01    1.31688E+00
    2.03500E+02    5.11422E+01    1.31638E+00
    2.04500E+02    4.90624E+01    1.31595E+00
    2.05500E+02    3.88383E+01    1.33013E+00
    2.06500E+02    3.44015E+01    1.33289E+00
    2.07500E+02    2.93751E+01    1.33587E+00
    2.08500E+02    2.32261E+01    1.33927E+00
    2.09500E+02    1.44033E+01    1.34310E+00
    2.10500E+02    0.00000E+00    0.00000E+00
    2.11500E+02    0.00000E+00    0.00000E+00
    2.12500E+02    0.00000E+00    0.00000E+00
    2.13500E+02    0.00000E+00    0.00000E+00
    2.14500E+02    0.00000E+00    0.00000E+00
    2.15500E+02    0.00000E+00    0.00000E+00
    2.16500E+02    0.00000E+00    0.00000E+00
    2.17500E+02    0.00000E+00    0.00000E+00
    2.18500E+02    0.00000E+00    0.00000E+00
    2.19500E+02    0.00000E+00    0.00000E+00
    2.20500E+02    0.00000E+00    0.00000E+00
    2.21500E+02    0.00000E+00    0.00000E+00
    2.22500E+02    0.00000E+00    0.00000E+00
    2.23500E+02    0.00000E+00    0.00000E+00
    2.24500E+02    0.00000E+00    0.00000E+00
    2.25500E+02    0.00000E+00    0.00000E+00
    2.26500E+02    0.00000E+00    0.00000E+00
    2.27500E+02    0.00000E+00    0.00000E+00
    2.28500E+02    0.00000E+00    0.00000E+00
    2.29500E+02    0.00000E+00    0.00000E+00
    2.30500E+02    0.00000E+00    0.00000E+00
    2.31500E+02    0.00000E+00    0.00000E+00
    2.32500E+02    0.00000E+00    0.00000E+00
    2.33500E+02    0.00000E+00    0.00000E+00
    2.34500E+02    0.00000E+00    0.00000E+00
    2.35500E+02    0.00000E+00    0.00000E+00
    2.36500E+02    0.00000E+00    0.00000E+00
    2.37500E+02    0.00000E+00    0.00000E+00
    2.38500E+02    0.00000E+00    0.00000E+00
    2.39500E+02    0.00000E+00    0.00000E+00
    2.40500E+02    0.00000E+00    0.00000E+00
    2.41500E+02    0.00000E+00    0.00000E+00
    2.42500E+02    0.00000E+00    0.00000E+00
    2.43500E+02    0.00000E+00    0.00000E+00
    2.44500E+02    0.00000E+00    0.00000E+00
    2.45500E+02    0.00000E+00    0.00000E+00
    2.46500E+02    0.00000E+00    0.00000E+00
    2.47500E+02    0.00000E+00    0.00000E+00
    2.48500E+02    0.00000E+00    0.00000E+00
    2.49500E+02    0.00000E+00    0.00000E+00
    2.50500E+02    0.00000E+00    0.00000E+00
    2.51500E+02    0.00000E+00    0.00000E+00
    2.52500E+02    0.00000E+00    0.00000E+00
    2.53500E+02    0.00000E+00    0.00000E+00
    2.54500E+02    0.00000E+00    0.00000E+00
    2.55500E+02    0.00000E+00    0.00000E+00
    2.56500E+02    0.00000E+00    0.00000E+00
    2.57500E+02    0.00000E+00    0.00000E+00
    2.58500E+02    0.00000E+00    0.00000E+00
    2.59500E+02    0.00000E+00    0.00000E+00
    2.60500E+02    0.00000E+00    0.00000E+00
    2.61500E+02    0.00000E+00    0.00000E+00
    2.62500E+02    0.00000E+00    0.00000E+00
    2.63500E+02    0.00000E+00    0.00000E+00
    2.64500E+02    0.00000E+00    0.00000E+00
    2.65500E+02    0.00000E+00    0.00000E+00
    2.66500E+02    0.00000E+00    0.00000E+00
    2.67500E+02    0.00000E+00    0.00000E+00
    2.68500E+02    0.00000E+00    0.00000E+00
    2.69500E+02    0.00000E+00    0.00000E+00
    2.70500E+02    0.00000E+00    0.00000E+00
    2.71500E+02    0.00000E+00    0.00000E+00
    2.72500E+02    0.00000E+00    0.00000E+00
    2.73500E+02    0.00000E+00    0.00000E+00
    2.74500E+02    0.00000E+00    0.00000E+00
    2.75500E+02    0.00000E+00    0.00000E+00
    2.76500E+02    0.00000E+00    0.00000E+00
    2.77500E+02    0.00000E+00    0.00000E+00
    2.78500E+02    0.00000E+00    0.00000E+00
    2.79500E+02    0.00000E+00    0.00000E+00
    2.80500E+02    0.00000E+00    0.00000E+00
    2.81500E+02    0.00000E+00    0.00000E+00
    2.82500E+02    0.00000E+00    0.00000E+00
    2.83500E+02    0.00000E+00    0.00000E+00
    2.84500E+02    0.00000E+00    0.00000E+00
    2.85500E+02    0.00000E+00    0.00000E+00
    2.86500E+02    0.00000E+00    0.00000E+00
    2.87500E+02    0.00000E+00    0.00000E+00
    2.88500E+02    0.00000E+00    0.00000E+00
    2.89500E+02    0.00000E+00    0.00000E+00
    2.90500E+02    0.00000E+00    0.00000E+00
    2.91500E+02    0.00000E+00    0.00000E+00
    2.92500E+02    0.00000E+00    0.00000E+00
    2.93500E+02    0.00000E+00    0.00000E+00
    2.94500E+02    0.00000E+00    0.00000E+00
    2.95500E+02    0.00000E+00    0.00000E+00
    2.96500E+02    0.00000E+00    0.00000E+00
    2.97500E+02    0.00000E+00    0.00000E+00
    2.98500E+02    0.00000E+00    0.00000E+00
    2.99500E+02    0.00000E+00    0.00000E+00
    3.00500E+02    0.00000E+00    0.00000E+00
    3.01500E+02    0.00000E+00    0.00000E+00
    3.02500E+02    0.00000E+00    0.00000E+00
    3.03500E+02    0.00000E+00    0.00000E+00
    3.04500E+02    0.00000E+00    0.00000E+00
    3.05500E+02    0.00000E+00    0.00000E+00
    3.06500E+02    0.00000E+00    0.00000E+00
    3.07500E+02    0.00000E+00    0.00000E+00
    3.08500E+02    0.00000E+00    0.00000E+00
    3.09500E+02    0.00000E+00    0.00000E+00
    3.10500E+02    0.00000E+00    0.00000E+00
    3.11500E+02    0.00000E+00    0.00000E+00
    3.12500E+02    0.00000E+00    0.00000E+00
    3.13500E+02    0.00000E+00    0.00000E+00
    3.14500E+02    0.00000E+00    0.00000E+00
    3.15500E+02    0.00000E+00    0.00000E+00
    3.16500E+02    0.00000E+00    0.00000E+00
    3.17500E+02    0.00000E+00    0.00000E+00
    3.18500E+02    0.00000E+00    0.00000E+00
    3.19500E+02    0.00000E+00    0.00000E+00
    3.20500E+02    0.00000E+00    0.00000E+00
    3.21500E+02    0.00000E+00    0.00000E+00
    3.22500E+02    0.00000E+00    0.00000E+00
    3.23500E+02    0.00000E+00    0.00000E+00
    3.24500E+02    0.00000E+00    0.00000E+00
    3.25500E+02    0.00000E+00    0.00000E+00
    3.26500E+02    0.00000E+00    0.00000E+00
    3.27500E+02    0.00000E+00    0.00000E+00
    3.28500E+02    0.00000E+00    0.00000E+00
    3.29500E+02    0.00000E+00    0.00000E+00
    3.30500E+02    0.00000E+00    0.00000E+00
    3.31500E+02    0.00000E+00    0.00000E+00
    3.32500E+02    0.00000E+00    0.00000E+00
    3.33500E+02    0.00000E+00    0.00000E+00
    3.34500E+02    0.00000E+00    0.00000E+00
    3.35500E+02    0.00000E+00    0.00000E+00
    3.36500E+02    0.00000E+00    0.00000E+00
    3.37500E+02    0.00000E+00    0.00000E+00
    3.38500E+02    0.00000E+00    0.00000E+00
    3.39500E+02    0.00000E+00    0.00000E+00
    3.40500E+02    0.00000E+00    0.00000E+00
    3.41500E+02    0.00000E+00    0.00000E+00
    3.42500E+02    0.00000E+00    0.00000E+00
    3.43500E+02    0.00000E+00    0.00000E+00
    3.44500E+02    0.00000E+00    0.00000E+00
    3.45500E+02    0.00000E+00    0.00000E+00
    3.46500E+02    0.00000E+00    0.00000E+00
    3.47500E+02    0.00000E+00    0.00000E+00
    3.48500E+02    0.00000E+00    0.00000E+00
    3.49500E+02    0.00000E+00    0.00000E+00
    3.50500E+02    0.00000E+00    0.00000E+00
    3.51500E+02    0.00000E+00    0.00000E+00
    3.52500E+02    0.00000E+00    0.00000E+00
    3.53500E+02    0.00000E+00    0.00000E+00
    3.54500E+02    0.00000E+00    0.00000E+00
    3.55500E+02    0.00000E+00    0.00000E+00
    3.56500E+02    0.00000E+00    0.00000E+00
    3.57500E+02    0.00000E+00    0.00000E+00
    3.58500E+02    0.00000E+00    0.00000E+00
    3.59500E+02    0.00000E+00    0.00000E+00
