     R_cyl [km]         z [km]        T [MeV]
    5.00000E-01    2.11671E+01    3.61735E+00
    1.50000E+00    2.10062E+01    3.81547E+00
    2.50000E+00    2.07841E+01    4.17950E+00
    3.50000E+00    2.06294E+01    4.41784E+00
    4.50000E+00    2.05481E+01    4.39426E+00
    5.50000E+00    2.04868E+01    4.20576E+00
    6.50000E+00    2.04432E+01    3.75095E+00
    7.50000E+00    2.03318E+01    2.08619E+00
    8.50000E+00    2.01793E+01    3.07577E+00
    9.50000E+00    2.00130E+01    3.97898E+00
    1.05000E+01    1.97956E+01    3.87413E+00
    1.15000E+01    1.94673E+01    2.79007E+00
    1.25000E+01    1.92448E+01    1.73448E+00
    1.35000E+01    1.89652E+01    3.24994E+00
    1.45000E+01    1.84991E+01    2.95001E+00
    1.55000E+01    1.82649E+01    1.73253E+00
    1.65000E+01    1.79125E+01    2.80275E+00
    1.75000E+01    1.74670E+01    3.09065E+00
    1.85000E+01    1.72010E+01    3.38628E+00
    1.95000E+01    1.66996E+01    3.53344E+00
    2.05000E+01    1.62975E+01    3.51412E+00
    2.15000E+01    1.57851E+01    3.63815E+00
    2.25000E+01    1.53415E+01    3.86641E+00
    2.35000E+01    1.50046E+01    4.03231E+00
    2.45000E+01    1.46936E+01    4.30394E+00
    2.55000E+01    1.47009E+01    4.47215E+00
    2.65000E+01    1.51092E+01    4.51439E+00
    2.75000E+01    1.58504E+01    4.42941E+00
    2.85000E+01    1.67395E+01    4.26941E+00
    2.95000E+01    1.76401E+01    4.13204E+00
    3.05000E+01    1.85425E+01    4.02636E+00
    3.15000E+01    1.94594E+01    3.92957E+00
    3.25000E+01    2.03783E+01    3.83934E+00
    3.35000E+01    2.12882E+01    3.76286E+00
    3.45000E+01    2.21852E+01    3.69599E+00
    3.55000E+01    2.30730E+01    3.63743E+00
    3.65000E+01    2.39355E+01    3.57564E+00
    3.75000E+01    2.47756E+01    3.51641E+00
    3.85000E+01    2.55963E+01    3.46393E+00
    3.95000E+01    2.64147E+01    3.41363E+00
    4.05000E+01    2.72274E+01    3.36889E+00
    4.15000E+01    2.80107E+01    3.32862E+00
    4.25000E+01    2.87637E+01    3.28727E+00
    4.35000E+01    2.94917E+01    3.24346E+00
    4.45000E+01    3.02430E+01    3.20016E+00
    4.55000E+01    3.09587E+01    3.16188E+00
    4.65000E+01    3.16437E+01    3.12644E+00
    4.75000E+01    3.23314E+01    3.09327E+00
    4.85000E+01    3.30143E+01    3.06164E+00
    4.95000E+01    3.36624E+01    3.03353E+00
    5.05000E+01    3.43139E+01    3.00282E+00
    5.15000E+01    3.49661E+01    2.96895E+00
    5.25000E+01    3.55848E+01    2.93934E+00
    5.35000E+01    3.62201E+01    2.90921E+00
    5.45000E+01    3.68347E+01    2.88127E+00
    5.55000E+01    3.74313E+01    2.85498E+00
    5.65000E+01    3.80493E+01    2.82804E+00
    5.75000E+01    3.86356E+01    2.80370E+00
    5.85000E+01    3.92320E+01    2.77928E+00
    5.95000E+01    3.98167E+01    2.75580E+00
    6.05000E+01    4.03879E+01    2.72904E+00
    6.15000E+01    4.09688E+01    2.70127E+00
    6.25000E+01    4.15183E+01    2.67631E+00
    6.35000E+01    4.20878E+01    2.65009E+00
    6.45000E+01    4.26320E+01    2.62633E+00
    6.55000E+01    4.31820E+01    2.60323E+00
    6.65000E+01    4.37155E+01    2.58079E+00
    6.75000E+01    4.42445E+01    2.55970E+00
    6.85000E+01    4.47684E+01    2.53968E+00
    6.95000E+01    4.52867E+01    2.52003E+00
    7.05000E+01    4.57971E+01    2.49872E+00
    7.15000E+01    4.62980E+01    2.47632E+00
    7.25000E+01    4.67938E+01    2.45411E+00
    7.35000E+01    4.72804E+01    2.43314E+00
    7.45000E+01    4.77617E+01    2.41323E+00
    7.55000E+01    4.82323E+01    2.39342E+00
    7.65000E+01    4.86959E+01    2.37457E+00
    7.75000E+01    4.91554E+01    2.35664E+00
    7.85000E+01    4.95991E+01    2.33917E+00
    7.95000E+01    5.00471E+01    2.32212E+00
    8.05000E+01    5.04713E+01    2.30628E+00
    8.15000E+01    5.09091E+01    2.29027E+00
    8.25000E+01    5.13261E+01    2.27193E+00
    8.35000E+01    5.17396E+01    2.25385E+00
    8.45000E+01    5.21448E+01    2.23671E+00
    8.55000E+01    5.25333E+01    2.22029E+00
    8.65000E+01    5.29308E+01    2.20365E+00
    8.75000E+01    5.33075E+01    2.18794E+00
    8.85000E+01    5.36796E+01    2.17293E+00
    8.95000E+01    5.40476E+01    2.15824E+00
    9.05000E+01    5.43993E+01    2.14401E+00
    9.15000E+01    5.47516E+01    2.13016E+00
    9.25000E+01    5.50933E+01    2.11683E+00
    9.35000E+01    5.54217E+01    2.10419E+00
    9.45000E+01    5.57510E+01    2.09166E+00
    9.55000E+01    5.60701E+01    2.07777E+00
    9.65000E+01    5.63747E+01    2.06376E+00
    9.75000E+01    5.66759E+01    2.05014E+00
    9.85000E+01    5.69728E+01    2.03698E+00
    9.95000E+01    5.72561E+01    2.02414E+00
    1.00500E+02    5.75287E+01    2.01170E+00
    1.01500E+02    5.78017E+01    1.99920E+00
    1.02500E+02    5.80631E+01    1.98704E+00
    1.03500E+02    5.83131E+01    1.97530E+00
    1.04500E+02    5.85533E+01    1.96379E+00
    1.05500E+02    5.87929E+01    1.95263E+00
    1.06500E+02    5.90210E+01    1.94168E+00
    1.07500E+02    5.92385E+01    1.93100E+00
    1.08500E+02    5.94442E+01    1.92067E+00
    1.09500E+02    5.96459E+01    1.91043E+00
    1.10500E+02    5.98397E+01    1.90020E+00
    1.11500E+02    6.00228E+01    1.88986E+00
    1.12500E+02    6.01973E+01    1.87971E+00
    1.13500E+02    6.03613E+01    1.86975E+00
    1.14500E+02    6.05174E+01    1.85984E+00
    1.15500E+02    6.06712E+01    1.85002E+00
    1.16500E+02    6.08153E+01    1.84025E+00
    1.17500E+02    6.09504E+01    1.83066E+00
    1.18500E+02    6.10757E+01    1.82114E+00
    1.19500E+02    6.11927E+01    1.81168E+00
    1.20500E+02    6.13002E+01    1.80237E+00
    1.21500E+02    6.13987E+01    1.79313E+00
    1.22500E+02    6.14878E+01    1.78402E+00
    1.23500E+02    6.15712E+01    1.77491E+00
    1.24500E+02    6.16447E+01    1.76591E+00
    1.25500E+02    6.17081E+01    1.75701E+00
    1.26500E+02    6.17607E+01    1.74817E+00
    1.27500E+02    6.18021E+01    1.73948E+00
    1.28500E+02    6.18334E+01    1.73211E+00
    1.29500E+02    6.18558E+01    1.72511E+00
    1.30500E+02    6.18706E+01    1.71803E+00
    1.31500E+02    6.18780E+01    1.71091E+00
    1.32500E+02    6.18774E+01    1.70376E+00
    1.33500E+02    6.18697E+01    1.69655E+00
    1.34500E+02    6.18534E+01    1.68936E+00
    1.35500E+02    6.18294E+01    1.68214E+00
    1.36500E+02    6.17971E+01    1.67487E+00
    1.37500E+02    6.17556E+01    1.66758E+00
    1.38500E+02    6.17064E+01    1.66027E+00
    1.39500E+02    6.16477E+01    1.65298E+00
    1.40500E+02    6.15804E+01    1.64564E+00
    1.41500E+02    6.15028E+01    1.63830E+00
    1.42500E+02    6.14184E+01    1.63095E+00
    1.43500E+02    6.13245E+01    1.62359E+00
    1.44500E+02    6.12193E+01    1.61624E+00
    1.45500E+02    6.11041E+01    1.60886E+00
    1.46500E+02    6.09768E+01    1.60152E+00
    1.47500E+02    6.08383E+01    1.59416E+00
    1.48500E+02    6.06875E+01    1.58685E+00
    1.49500E+02    6.05244E+01    1.58092E+00
    1.50500E+02    6.03568E+01    1.57551E+00
    1.51500E+02    6.01806E+01    1.57012E+00
    1.52500E+02    5.99962E+01    1.56470E+00
    1.53500E+02    5.98016E+01    1.55928E+00
    1.54500E+02    5.95978E+01    1.55388E+00
    1.55500E+02    5.93878E+01    1.54847E+00
    1.56500E+02    5.91704E+01    1.54309E+00
    1.57500E+02    5.89426E+01    1.53769E+00
    1.58500E+02    5.87036E+01    1.53233E+00
    1.59500E+02    5.84562E+01    1.52700E+00
    1.60500E+02    5.82024E+01    1.52167E+00
    1.61500E+02    5.79372E+01    1.51636E+00
    1.62500E+02    5.76587E+01    1.51107E+00
    1.63500E+02    5.73718E+01    1.50582E+00
    1.64500E+02    5.70767E+01    1.50058E+00
    1.65500E+02    5.67679E+01    1.49538E+00
    1.66500E+02    5.64469E+01    1.49021E+00
    1.67500E+02    5.61173E+01    1.48504E+00
    1.68500E+02    5.57748E+01    1.47994E+00
    1.69500E+02    5.54186E+01    1.47488E+00
    1.70500E+02    5.50527E+01    1.46983E+00
    1.71500E+02    5.46717E+01    1.46485E+00
    1.72500E+02    5.42788E+01    1.45991E+00
    1.73500E+02    5.38740E+01    1.45503E+00
    1.74500E+02    5.34504E+01    1.45019E+00
    1.75500E+02    5.30174E+01    1.44542E+00
    1.76500E+02    5.25681E+01    1.44095E+00
    1.77500E+02    5.21103E+01    1.43656E+00
    1.78500E+02    5.15094E+01    1.43258E+00
    1.79500E+02    5.06143E+01    1.42931E+00
    1.80500E+02    4.96869E+01    1.42615E+00
    1.81500E+02    4.87277E+01    1.42310E+00
    1.82500E+02    4.77351E+01    1.42013E+00
    1.83500E+02    4.67073E+01    1.41725E+00
    1.84500E+02    4.56423E+01    1.41445E+00
    1.85500E+02    4.45389E+01    1.41176E+00
    1.86500E+02    4.33945E+01    1.40914E+00
    1.87500E+02    4.22070E+01    1.40660E+00
    1.88500E+02    4.09742E+01    1.40415E+00
    1.89500E+02    3.96935E+01    1.40178E+00
    1.90500E+02    3.83612E+01    1.39950E+00
    1.91500E+02    3.69758E+01    1.39726E+00
    1.92500E+02    3.55342E+01    1.39511E+00
    1.93500E+02    3.40312E+01    1.39303E+00
    1.94500E+02    3.24637E+01    1.39103E+00
    1.95500E+02    3.08270E+01    1.38903E+00
    1.96500E+02    2.91174E+01    1.38706E+00
    1.97500E+02    2.73288E+01    1.38514E+00
    1.98500E+02    2.44158E+01    1.38467E+00
    1.99500E+02    2.01403E+01    1.38545E+00
    2.00500E+02    1.46693E+01    1.38632E+00
    2.01500E+02    3.00447E+00    1.38819E+00
    2.02500E+02    0.00000E+00    0.00000E+00
    2.03500E+02    0.00000E+00    0.00000E+00
    2.04500E+02    0.00000E+00    0.00000E+00
    2.05500E+02    0.00000E+00    0.00000E+00
    2.06500E+02    0.00000E+00    0.00000E+00
    2.07500E+02    0.00000E+00    0.00000E+00
    2.08500E+02    0.00000E+00    0.00000E+00
    2.09500E+02    0.00000E+00    0.00000E+00
    2.10500E+02    0.00000E+00    0.00000E+00
    2.11500E+02    0.00000E+00    0.00000E+00
    2.12500E+02    0.00000E+00    0.00000E+00
    2.13500E+02    0.00000E+00    0.00000E+00
    2.14500E+02    0.00000E+00    0.00000E+00
    2.15500E+02    0.00000E+00    0.00000E+00
    2.16500E+02    0.00000E+00    0.00000E+00
    2.17500E+02    0.00000E+00    0.00000E+00
    2.18500E+02    0.00000E+00    0.00000E+00
    2.19500E+02    0.00000E+00    0.00000E+00
    2.20500E+02    0.00000E+00    0.00000E+00
    2.21500E+02    0.00000E+00    0.00000E+00
    2.22500E+02    0.00000E+00    0.00000E+00
    2.23500E+02    0.00000E+00    0.00000E+00
    2.24500E+02    0.00000E+00    0.00000E+00
    2.25500E+02    0.00000E+00    0.00000E+00
    2.26500E+02    0.00000E+00    0.00000E+00
    2.27500E+02    0.00000E+00    0.00000E+00
    2.28500E+02    0.00000E+00    0.00000E+00
    2.29500E+02    0.00000E+00    0.00000E+00
    2.30500E+02    0.00000E+00    0.00000E+00
    2.31500E+02    0.00000E+00    0.00000E+00
    2.32500E+02    0.00000E+00    0.00000E+00
    2.33500E+02    0.00000E+00    0.00000E+00
    2.34500E+02    0.00000E+00    0.00000E+00
    2.35500E+02    0.00000E+00    0.00000E+00
    2.36500E+02    0.00000E+00    0.00000E+00
    2.37500E+02    0.00000E+00    0.00000E+00
    2.38500E+02    0.00000E+00    0.00000E+00
    2.39500E+02    0.00000E+00    0.00000E+00
    2.40500E+02    0.00000E+00    0.00000E+00
    2.41500E+02    0.00000E+00    0.00000E+00
    2.42500E+02    0.00000E+00    0.00000E+00
    2.43500E+02    0.00000E+00    0.00000E+00
    2.44500E+02    0.00000E+00    0.00000E+00
    2.45500E+02    0.00000E+00    0.00000E+00
    2.46500E+02    0.00000E+00    0.00000E+00
    2.47500E+02    0.00000E+00    0.00000E+00
    2.48500E+02    0.00000E+00    0.00000E+00
    2.49500E+02    0.00000E+00    0.00000E+00
    2.50500E+02    0.00000E+00    0.00000E+00
    2.51500E+02    0.00000E+00    0.00000E+00
    2.52500E+02    0.00000E+00    0.00000E+00
    2.53500E+02    0.00000E+00    0.00000E+00
    2.54500E+02    0.00000E+00    0.00000E+00
    2.55500E+02    0.00000E+00    0.00000E+00
    2.56500E+02    0.00000E+00    0.00000E+00
    2.57500E+02    0.00000E+00    0.00000E+00
    2.58500E+02    0.00000E+00    0.00000E+00
    2.59500E+02    0.00000E+00    0.00000E+00
    2.60500E+02    0.00000E+00    0.00000E+00
    2.61500E+02    0.00000E+00    0.00000E+00
    2.62500E+02    0.00000E+00    0.00000E+00
    2.63500E+02    0.00000E+00    0.00000E+00
    2.64500E+02    0.00000E+00    0.00000E+00
    2.65500E+02    0.00000E+00    0.00000E+00
    2.66500E+02    0.00000E+00    0.00000E+00
    2.67500E+02    0.00000E+00    0.00000E+00
    2.68500E+02    0.00000E+00    0.00000E+00
    2.69500E+02    0.00000E+00    0.00000E+00
    2.70500E+02    0.00000E+00    0.00000E+00
    2.71500E+02    0.00000E+00    0.00000E+00
    2.72500E+02    0.00000E+00    0.00000E+00
    2.73500E+02    0.00000E+00    0.00000E+00
    2.74500E+02    0.00000E+00    0.00000E+00
    2.75500E+02    0.00000E+00    0.00000E+00
    2.76500E+02    0.00000E+00    0.00000E+00
    2.77500E+02    0.00000E+00    0.00000E+00
    2.78500E+02    0.00000E+00    0.00000E+00
    2.79500E+02    0.00000E+00    0.00000E+00
    2.80500E+02    0.00000E+00    0.00000E+00
    2.81500E+02    0.00000E+00    0.00000E+00
    2.82500E+02    0.00000E+00    0.00000E+00
    2.83500E+02    0.00000E+00    0.00000E+00
    2.84500E+02    0.00000E+00    0.00000E+00
    2.85500E+02    0.00000E+00    0.00000E+00
    2.86500E+02    0.00000E+00    0.00000E+00
    2.87500E+02    0.00000E+00    0.00000E+00
    2.88500E+02    0.00000E+00    0.00000E+00
    2.89500E+02    0.00000E+00    0.00000E+00
    2.90500E+02    0.00000E+00    0.00000E+00
    2.91500E+02    0.00000E+00    0.00000E+00
    2.92500E+02    0.00000E+00    0.00000E+00
    2.93500E+02    0.00000E+00    0.00000E+00
    2.94500E+02    0.00000E+00    0.00000E+00
    2.95500E+02    0.00000E+00    0.00000E+00
    2.96500E+02    0.00000E+00    0.00000E+00
    2.97500E+02    0.00000E+00    0.00000E+00
    2.98500E+02    0.00000E+00    0.00000E+00
    2.99500E+02    0.00000E+00    0.00000E+00
    3.00500E+02    0.00000E+00    0.00000E+00
    3.01500E+02    0.00000E+00    0.00000E+00
    3.02500E+02    0.00000E+00    0.00000E+00
    3.03500E+02    0.00000E+00    0.00000E+00
    3.04500E+02    0.00000E+00    0.00000E+00
    3.05500E+02    0.00000E+00    0.00000E+00
    3.06500E+02    0.00000E+00    0.00000E+00
    3.07500E+02    0.00000E+00    0.00000E+00
    3.08500E+02    0.00000E+00    0.00000E+00
    3.09500E+02    0.00000E+00    0.00000E+00
    3.10500E+02    0.00000E+00    0.00000E+00
    3.11500E+02    0.00000E+00    0.00000E+00
    3.12500E+02    0.00000E+00    0.00000E+00
    3.13500E+02    0.00000E+00    0.00000E+00
    3.14500E+02    0.00000E+00    0.00000E+00
    3.15500E+02    0.00000E+00    0.00000E+00
    3.16500E+02    0.00000E+00    0.00000E+00
    3.17500E+02    0.00000E+00    0.00000E+00
    3.18500E+02    0.00000E+00    0.00000E+00
    3.19500E+02    0.00000E+00    0.00000E+00
    3.20500E+02    0.00000E+00    0.00000E+00
    3.21500E+02    0.00000E+00    0.00000E+00
    3.22500E+02    0.00000E+00    0.00000E+00
    3.23500E+02    0.00000E+00    0.00000E+00
    3.24500E+02    0.00000E+00    0.00000E+00
    3.25500E+02    0.00000E+00    0.00000E+00
    3.26500E+02    0.00000E+00    0.00000E+00
    3.27500E+02    0.00000E+00    0.00000E+00
    3.28500E+02    0.00000E+00    0.00000E+00
    3.29500E+02    0.00000E+00    0.00000E+00
    3.30500E+02    0.00000E+00    0.00000E+00
    3.31500E+02    0.00000E+00    0.00000E+00
    3.32500E+02    0.00000E+00    0.00000E+00
    3.33500E+02    0.00000E+00    0.00000E+00
    3.34500E+02    0.00000E+00    0.00000E+00
    3.35500E+02    0.00000E+00    0.00000E+00
    3.36500E+02    0.00000E+00    0.00000E+00
    3.37500E+02    0.00000E+00    0.00000E+00
    3.38500E+02    0.00000E+00    0.00000E+00
    3.39500E+02    0.00000E+00    0.00000E+00
    3.40500E+02    0.00000E+00    0.00000E+00
    3.41500E+02    0.00000E+00    0.00000E+00
    3.42500E+02    0.00000E+00    0.00000E+00
    3.43500E+02    0.00000E+00    0.00000E+00
    3.44500E+02    0.00000E+00    0.00000E+00
    3.45500E+02    0.00000E+00    0.00000E+00
    3.46500E+02    0.00000E+00    0.00000E+00
    3.47500E+02    0.00000E+00    0.00000E+00
    3.48500E+02    0.00000E+00    0.00000E+00
    3.49500E+02    0.00000E+00    0.00000E+00
    3.50500E+02    0.00000E+00    0.00000E+00
    3.51500E+02    0.00000E+00    0.00000E+00
    3.52500E+02    0.00000E+00    0.00000E+00
    3.53500E+02    0.00000E+00    0.00000E+00
    3.54500E+02    0.00000E+00    0.00000E+00
    3.55500E+02    0.00000E+00    0.00000E+00
    3.56500E+02    0.00000E+00    0.00000E+00
    3.57500E+02    0.00000E+00    0.00000E+00
    3.58500E+02    0.00000E+00    0.00000E+00
    3.59500E+02    0.00000E+00    0.00000E+00
