     R_cyl [km]         z [km]        T [MeV]
    5.00000E-01    2.20966E+01    2.99653E+00
    1.50000E+00    2.17878E+01    3.12089E+00
    2.50000E+00    2.15441E+01    3.40046E+00
    3.50000E+00    2.14795E+01    3.46389E+00
    4.50000E+00    2.14610E+01    3.40916E+00
    5.50000E+00    2.14370E+01    3.30252E+00
    6.50000E+00    2.13904E+01    3.12561E+00
    7.50000E+00    2.12852E+01    2.54211E+00
    8.50000E+00    2.11177E+01    2.86602E+00
    9.50000E+00    2.08973E+01    3.20383E+00
    1.05000E+01    2.06147E+01    3.25228E+00
    1.15000E+01    2.04330E+01    2.92962E+00
    1.25000E+01    2.02180E+01    2.51427E+00
    1.35000E+01    1.99233E+01    3.12712E+00
    1.45000E+01    1.94898E+01    3.18351E+00
    1.55000E+01    1.92928E+01    2.79246E+00
    1.65000E+01    1.90213E+01    3.23040E+00
    1.75000E+01    1.86277E+01    3.43467E+00
    1.85000E+01    1.84082E+01    3.57190E+00
    1.95000E+01    1.82644E+01    3.70022E+00
    2.05000E+01    1.81704E+01    3.79648E+00
    2.15000E+01    1.83263E+01    3.83764E+00
    2.25000E+01    1.89826E+01    3.72027E+00
    2.35000E+01    1.99978E+01    3.53387E+00
    2.45000E+01    2.11480E+01    3.38399E+00
    2.55000E+01    2.23641E+01    3.26125E+00
    2.65000E+01    2.36477E+01    3.16099E+00
    2.75000E+01    2.49736E+01    3.08039E+00
    2.85000E+01    2.62823E+01    3.01093E+00
    2.95000E+01    2.76005E+01    2.94440E+00
    3.05000E+01    2.89314E+01    2.88573E+00
    3.15000E+01    3.02356E+01    2.83574E+00
    3.25000E+01    3.15134E+01    2.79268E+00
    3.35000E+01    3.27909E+01    2.75045E+00
    3.45000E+01    3.40559E+01    2.70965E+00
    3.55000E+01    3.52907E+01    2.66807E+00
    3.65000E+01    3.65001E+01    2.63084E+00
    3.75000E+01    3.77098E+01    2.59716E+00
    3.85000E+01    3.89037E+01    2.56599E+00
    3.95000E+01    4.00838E+01    2.53747E+00
    4.05000E+01    4.12415E+01    2.50669E+00
    4.15000E+01    4.23859E+01    2.47569E+00
    4.25000E+01    4.35172E+01    2.44494E+00
    4.35000E+01    4.46523E+01    2.41579E+00
    4.45000E+01    4.57749E+01    2.38862E+00
    4.55000E+01    4.68789E+01    2.36335E+00
    4.65000E+01    4.79749E+01    2.33962E+00
    4.75000E+01    4.90627E+01    2.31748E+00
    4.85000E+01    5.01423E+01    2.29430E+00
    4.95000E+01    5.12073E+01    2.27013E+00
    5.05000E+01    5.22634E+01    2.24647E+00
    5.15000E+01    5.33187E+01    2.22298E+00
    5.25000E+01    5.43624E+01    2.20135E+00
    5.35000E+01    5.53963E+01    2.18075E+00
    5.45000E+01    5.64175E+01    2.16080E+00
    5.55000E+01    5.74326E+01    2.14188E+00
    5.65000E+01    5.84452E+01    2.12390E+00
    5.75000E+01    5.94455E+01    2.10735E+00
    5.85000E+01    6.04407E+01    2.09177E+00
    5.95000E+01    6.14260E+01    2.07167E+00
    6.05000E+01    6.24040E+01    2.05261E+00
    6.15000E+01    6.33762E+01    2.03449E+00
    6.25000E+01    6.43347E+01    2.01764E+00
    6.35000E+01    6.52882E+01    2.00128E+00
    6.45000E+01    6.62339E+01    1.98540E+00
    6.55000E+01    6.71717E+01    1.97008E+00
    6.65000E+01    6.80988E+01    1.95567E+00
    6.75000E+01    6.90122E+01    1.94202E+00
    6.85000E+01    6.99252E+01    1.92864E+00
    6.95000E+01    7.08280E+01    1.91556E+00
    7.05000E+01    7.17196E+01    1.90275E+00
    7.15000E+01    7.26008E+01    1.88853E+00
    7.25000E+01    7.34735E+01    1.87372E+00
    7.35000E+01    7.43463E+01    1.85969E+00
    7.45000E+01    7.52067E+01    1.84657E+00
    7.55000E+01    7.60555E+01    1.83376E+00
    7.65000E+01    7.68959E+01    1.82136E+00
    7.75000E+01    7.77243E+01    1.80938E+00
    7.85000E+01    7.85419E+01    1.79810E+00
    7.95000E+01    7.93544E+01    1.78685E+00
    8.05000E+01    8.01586E+01    1.77596E+00
    8.15000E+01    8.09553E+01    1.76568E+00
    8.25000E+01    8.17407E+01    1.75555E+00
    8.35000E+01    8.25118E+01    1.74587E+00
    8.45000E+01    8.32812E+01    1.73583E+00
    8.55000E+01    8.40413E+01    1.72505E+00
    8.65000E+01    8.47901E+01    1.71373E+00
    8.75000E+01    8.55248E+01    1.70336E+00
    8.85000E+01    8.62571E+01    1.69284E+00
    8.95000E+01    8.69783E+01    1.68284E+00
    9.05000E+01    8.76866E+01    1.67316E+00
    9.15000E+01    8.83845E+01    1.66362E+00
    9.25000E+01    8.90769E+01    1.65451E+00
    9.35000E+01    8.97554E+01    1.64558E+00
    9.45000E+01    9.04252E+01    1.63690E+00
    9.55000E+01    9.10897E+01    1.62856E+00
    9.65000E+01    9.17376E+01    1.62035E+00
    9.75000E+01    9.23762E+01    1.61257E+00
    9.85000E+01    9.30106E+01    1.60471E+00
    9.95000E+01    9.36311E+01    1.59738E+00
    1.00500E+02    9.42438E+01    1.59003E+00
    1.01500E+02    9.48449E+01    1.58242E+00
    1.02500E+02    9.54336E+01    1.57429E+00
    1.03500E+02    9.60197E+01    1.56630E+00
    1.04500E+02    9.65886E+01    1.55848E+00
    1.05500E+02    9.71528E+01    1.55088E+00
    1.06500E+02    9.77054E+01    1.54342E+00
    1.07500E+02    9.82504E+01    1.53611E+00
    1.08500E+02    9.87817E+01    1.52900E+00
    1.09500E+02    9.93042E+01    1.52204E+00
    1.10500E+02    9.98168E+01    1.51517E+00
    1.11500E+02    1.00320E+02    1.50852E+00
    1.12500E+02    1.00816E+02    1.50183E+00
    1.13500E+02    1.01297E+02    1.49547E+00
    1.14500E+02    1.01772E+02    1.48909E+00
    1.15500E+02    1.02234E+02    1.48281E+00
    1.16500E+02    1.02690E+02    1.47676E+00
    1.17500E+02    1.03134E+02    1.47069E+00
    1.18500E+02    1.03565E+02    1.46480E+00
    1.19500E+02    1.03994E+02    1.45899E+00
    1.20500E+02    1.04403E+02    1.45328E+00
    1.21500E+02    1.04812E+02    1.44777E+00
    1.22500E+02    1.05202E+02    1.44251E+00
    1.23500E+02    1.05587E+02    1.43743E+00
    1.24500E+02    1.05967E+02    1.43242E+00
    1.25500E+02    1.06331E+02    1.42750E+00
    1.26500E+02    1.06693E+02    1.42260E+00
    1.27500E+02    1.07042E+02    1.41775E+00
    1.28500E+02    1.07386E+02    1.41294E+00
    1.29500E+02    1.07720E+02    1.40813E+00
    1.30500E+02    1.08047E+02    1.40341E+00
    1.31500E+02    1.08363E+02    1.39873E+00
    1.32500E+02    1.08671E+02    1.39403E+00
    1.33500E+02    1.08977E+02    1.38933E+00
    1.34500E+02    1.09265E+02    1.38476E+00
    1.35500E+02    1.09549E+02    1.38024E+00
    1.36500E+02    1.09828E+02    1.37565E+00
    1.37500E+02    1.10095E+02    1.37110E+00
    1.38500E+02    1.10355E+02    1.36663E+00
    1.39500E+02    1.10601E+02    1.36222E+00
    1.40500E+02    1.10850E+02    1.35778E+00
    1.41500E+02    1.11082E+02    1.35340E+00
    1.42500E+02    1.11307E+02    1.34907E+00
    1.43500E+02    1.11524E+02    1.34477E+00
    1.44500E+02    1.11733E+02    1.34050E+00
    1.45500E+02    1.11939E+02    1.33622E+00
    1.46500E+02    1.12128E+02    1.33203E+00
    1.47500E+02    1.12312E+02    1.32784E+00
    1.48500E+02    1.12486E+02    1.32367E+00
    1.49500E+02    1.12654E+02    1.31966E+00
    1.50500E+02    1.12818E+02    1.31603E+00
    1.51500E+02    1.12966E+02    1.31294E+00
    1.52500E+02    1.13114E+02    1.30981E+00
    1.53500E+02    1.13250E+02    1.30669E+00
    1.54500E+02    1.13380E+02    1.30358E+00
    1.55500E+02    1.13506E+02    1.30046E+00
    1.56500E+02    1.13623E+02    1.29737E+00
    1.57500E+02    1.13741E+02    1.29425E+00
    1.58500E+02    1.13845E+02    1.29117E+00
    1.59500E+02    1.13946E+02    1.28809E+00
    1.60500E+02    1.14040E+02    1.28503E+00
    1.61500E+02    1.14125E+02    1.28200E+00
    1.62500E+02    1.14209E+02    1.27895E+00
    1.63500E+02    1.14279E+02    1.27595E+00
    1.64500E+02    1.14347E+02    1.27295E+00
    1.65500E+02    1.14408E+02    1.26996E+00
    1.66500E+02    1.14460E+02    1.26700E+00
    1.67500E+02    1.14510E+02    1.26403E+00
    1.68500E+02    1.14548E+02    1.26111E+00
    1.69500E+02    1.14586E+02    1.25817E+00
    1.70500E+02    1.14613E+02    1.25526E+00
    1.71500E+02    1.14634E+02    1.25237E+00
    1.72500E+02    1.14650E+02    1.24950E+00
    1.73500E+02    1.14656E+02    1.24666E+00
    1.74500E+02    1.14660E+02    1.24380E+00
    1.75500E+02    1.14652E+02    1.24099E+00
    1.76500E+02    1.14640E+02    1.23820E+00
    1.77500E+02    1.14620E+02    1.23542E+00
    1.78500E+02    1.14593E+02    1.23267E+00
    1.79500E+02    1.14560E+02    1.22992E+00
    1.80500E+02    1.14518E+02    1.22721E+00
    1.81500E+02    1.14471E+02    1.22450E+00
    1.82500E+02    1.14417E+02    1.22177E+00
    1.83500E+02    1.14355E+02    1.21905E+00
    1.84500E+02    1.14288E+02    1.21635E+00
    1.85500E+02    1.14211E+02    1.21370E+00
    1.86500E+02    1.14129E+02    1.21104E+00
    1.87500E+02    1.14038E+02    1.20841E+00
    1.88500E+02    1.13939E+02    1.20580E+00
    1.89500E+02    1.13834E+02    1.20321E+00
    1.90500E+02    1.13720E+02    1.20063E+00
    1.91500E+02    1.13600E+02    1.19798E+00
    1.92500E+02    1.13472E+02    1.19539E+00
    1.93500E+02    1.13341E+02    1.19283E+00
    1.94500E+02    1.13203E+02    1.19031E+00
    1.95500E+02    1.13058E+02    1.18781E+00
    1.96500E+02    1.12906E+02    1.18533E+00
    1.97500E+02    1.12746E+02    1.18290E+00
    1.98500E+02    1.12579E+02    1.18047E+00
    1.99500E+02    1.12406E+02    1.17809E+00
    2.00500E+02    1.12228E+02    1.17566E+00
    2.01500E+02    1.12043E+02    1.17327E+00
    2.02500E+02    1.11850E+02    1.17092E+00
    2.03500E+02    1.11649E+02    1.16855E+00
    2.04500E+02    1.11442E+02    1.16621E+00
    2.05500E+02    1.11229E+02    1.16388E+00
    2.06500E+02    1.11010E+02    1.16158E+00
    2.07500E+02    1.10782E+02    1.15930E+00
    2.08500E+02    1.10546E+02    1.15703E+00
    2.09500E+02    1.10306E+02    1.15479E+00
    2.10500E+02    1.10059E+02    1.15256E+00
    2.11500E+02    1.09804E+02    1.15036E+00
    2.12500E+02    1.09540E+02    1.14818E+00
    2.13500E+02    1.09272E+02    1.14600E+00
    2.14500E+02    1.08997E+02    1.14382E+00
    2.15500E+02    1.08714E+02    1.14167E+00
    2.16500E+02    1.08423E+02    1.13948E+00
    2.17500E+02    1.08128E+02    1.13731E+00
    2.18500E+02    1.07824E+02    1.13514E+00
    2.19500E+02    1.07513E+02    1.13300E+00
    2.20500E+02    1.07198E+02    1.13085E+00
    2.21500E+02    1.06874E+02    1.12873E+00
    2.22500E+02    1.06542E+02    1.12662E+00
    2.23500E+02    1.06206E+02    1.12452E+00
    2.24500E+02    1.05863E+02    1.12244E+00
    2.25500E+02    1.05510E+02    1.12036E+00
    2.26500E+02    1.05155E+02    1.11828E+00
    2.27500E+02    1.04790E+02    1.11619E+00
    2.28500E+02    1.04419E+02    1.11407E+00
    2.29500E+02    1.04043E+02    1.11194E+00
    2.30500E+02    1.03657E+02    1.10982E+00
    2.31500E+02    1.03268E+02    1.10773E+00
    2.32500E+02    1.02872E+02    1.10562E+00
    2.33500E+02    1.02467E+02    1.10353E+00
    2.34500E+02    1.02057E+02    1.10145E+00
    2.35500E+02    1.01639E+02    1.09941E+00
    2.36500E+02    1.01217E+02    1.09742E+00
    2.37500E+02    1.00784E+02    1.09489E+00
    2.38500E+02    1.00347E+02    1.09194E+00
    2.39500E+02    9.99023E+01    1.08901E+00
    2.40500E+02    9.94516E+01    1.08614E+00
    2.41500E+02    9.89961E+01    1.08331E+00
    2.42500E+02    9.85285E+01    1.08051E+00
    2.43500E+02    9.80597E+01    1.07774E+00
    2.44500E+02    9.66104E+01    1.07711E+00
    2.45500E+02    9.55953E+01    1.07547E+00
    2.46500E+02    9.45474E+01    1.07380E+00
    2.47500E+02    9.34668E+01    1.07213E+00
    2.48500E+02    9.23525E+01    1.07047E+00
    2.49500E+02    9.12042E+01    1.06878E+00
    2.50500E+02    9.00216E+01    1.06712E+00
    2.51500E+02    8.88044E+01    1.06540E+00
    2.52500E+02    8.75528E+01    1.06371E+00
    2.53500E+02    8.62682E+01    1.06199E+00
    2.54500E+02    8.49502E+01    1.06022E+00
    2.55500E+02    8.35986E+01    1.05846E+00
    2.56500E+02    8.22154E+01    1.05663E+00
    2.57500E+02    8.08003E+01    1.05481E+00
    2.58500E+02    7.98013E+01    1.05229E+00
    2.59500E+02    7.78458E+01    1.05103E+00
    2.60500E+02    7.58511E+01    1.04970E+00
    2.61500E+02    7.38139E+01    1.04824E+00
    2.62500E+02    7.17299E+01    1.04673E+00
    2.63500E+02    6.95941E+01    1.04508E+00
    2.64500E+02    6.74014E+01    1.04332E+00
    2.65500E+02    6.51453E+01    1.04147E+00
    2.66500E+02    6.28202E+01    1.03952E+00
    2.67500E+02    6.04189E+01    1.03754E+00
    2.68500E+02    5.79339E+01    1.03544E+00
    2.69500E+02    5.53568E+01    1.03331E+00
    2.70500E+02    5.26756E+01    1.03108E+00
    2.71500E+02    4.98754E+01    1.02875E+00
    2.72500E+02    4.69317E+01    1.02636E+00
    2.73500E+02    4.38047E+01    1.02390E+00
    2.74500E+02    4.04348E+01    1.02147E+00
    2.75500E+02    3.67320E+01    1.01909E+00
    2.76500E+02    3.25782E+01    1.01679E+00
    2.77500E+02    2.77548E+01    1.01462E+00
    2.78500E+02    2.17978E+01    1.01264E+00
    2.79500E+02    1.30866E+01    1.01103E+00
    2.80500E+02    0.00000E+00    0.00000E+00
    2.81500E+02    0.00000E+00    0.00000E+00
    2.82500E+02    0.00000E+00    0.00000E+00
    2.83500E+02    0.00000E+00    0.00000E+00
    2.84500E+02    0.00000E+00    0.00000E+00
    2.85500E+02    0.00000E+00    0.00000E+00
    2.86500E+02    0.00000E+00    0.00000E+00
    2.87500E+02    0.00000E+00    0.00000E+00
    2.88500E+02    0.00000E+00    0.00000E+00
    2.89500E+02    0.00000E+00    0.00000E+00
    2.90500E+02    0.00000E+00    0.00000E+00
    2.91500E+02    0.00000E+00    0.00000E+00
    2.92500E+02    0.00000E+00    0.00000E+00
    2.93500E+02    0.00000E+00    0.00000E+00
    2.94500E+02    0.00000E+00    0.00000E+00
    2.95500E+02    0.00000E+00    0.00000E+00
    2.96500E+02    0.00000E+00    0.00000E+00
    2.97500E+02    0.00000E+00    0.00000E+00
    2.98500E+02    0.00000E+00    0.00000E+00
    2.99500E+02    0.00000E+00    0.00000E+00
    3.00500E+02    0.00000E+00    0.00000E+00
    3.01500E+02    0.00000E+00    0.00000E+00
    3.02500E+02    0.00000E+00    0.00000E+00
    3.03500E+02    0.00000E+00    0.00000E+00
    3.04500E+02    0.00000E+00    0.00000E+00
    3.05500E+02    0.00000E+00    0.00000E+00
    3.06500E+02    0.00000E+00    0.00000E+00
    3.07500E+02    0.00000E+00    0.00000E+00
    3.08500E+02    0.00000E+00    0.00000E+00
    3.09500E+02    0.00000E+00    0.00000E+00
    3.10500E+02    0.00000E+00    0.00000E+00
    3.11500E+02    0.00000E+00    0.00000E+00
    3.12500E+02    0.00000E+00    0.00000E+00
    3.13500E+02    0.00000E+00    0.00000E+00
    3.14500E+02    0.00000E+00    0.00000E+00
    3.15500E+02    0.00000E+00    0.00000E+00
    3.16500E+02    0.00000E+00    0.00000E+00
    3.17500E+02    0.00000E+00    0.00000E+00
    3.18500E+02    0.00000E+00    0.00000E+00
    3.19500E+02    0.00000E+00    0.00000E+00
    3.20500E+02    0.00000E+00    0.00000E+00
    3.21500E+02    0.00000E+00    0.00000E+00
    3.22500E+02    0.00000E+00    0.00000E+00
    3.23500E+02    0.00000E+00    0.00000E+00
    3.24500E+02    0.00000E+00    0.00000E+00
    3.25500E+02    0.00000E+00    0.00000E+00
    3.26500E+02    0.00000E+00    0.00000E+00
    3.27500E+02    0.00000E+00    0.00000E+00
    3.28500E+02    0.00000E+00    0.00000E+00
    3.29500E+02    0.00000E+00    0.00000E+00
    3.30500E+02    0.00000E+00    0.00000E+00
    3.31500E+02    0.00000E+00    0.00000E+00
    3.32500E+02    0.00000E+00    0.00000E+00
    3.33500E+02    0.00000E+00    0.00000E+00
    3.34500E+02    0.00000E+00    0.00000E+00
    3.35500E+02    0.00000E+00    0.00000E+00
    3.36500E+02    0.00000E+00    0.00000E+00
    3.37500E+02    0.00000E+00    0.00000E+00
    3.38500E+02    0.00000E+00    0.00000E+00
    3.39500E+02    0.00000E+00    0.00000E+00
    3.40500E+02    0.00000E+00    0.00000E+00
    3.41500E+02    0.00000E+00    0.00000E+00
    3.42500E+02    0.00000E+00    0.00000E+00
    3.43500E+02    0.00000E+00    0.00000E+00
    3.44500E+02    0.00000E+00    0.00000E+00
    3.45500E+02    0.00000E+00    0.00000E+00
    3.46500E+02    0.00000E+00    0.00000E+00
    3.47500E+02    0.00000E+00    0.00000E+00
    3.48500E+02    0.00000E+00    0.00000E+00
    3.49500E+02    0.00000E+00    0.00000E+00
    3.50500E+02    0.00000E+00    0.00000E+00
    3.51500E+02    0.00000E+00    0.00000E+00
    3.52500E+02    0.00000E+00    0.00000E+00
    3.53500E+02    0.00000E+00    0.00000E+00
    3.54500E+02    0.00000E+00    0.00000E+00
    3.55500E+02    0.00000E+00    0.00000E+00
    3.56500E+02    0.00000E+00    0.00000E+00
    3.57500E+02    0.00000E+00    0.00000E+00
    3.58500E+02    0.00000E+00    0.00000E+00
    3.59500E+02    0.00000E+00    0.00000E+00
