     R_cyl [km]         z [km]        T [MeV]
    5.00000E-01    2.21506E+01    2.94663E+00
    1.50000E+00    2.18681E+01    3.03448E+00
    2.50000E+00    2.16479E+01    3.27600E+00
    3.50000E+00    2.14989E+01    3.44220E+00
    4.50000E+00    2.14817E+01    3.38677E+00
    5.50000E+00    2.14600E+01    3.27980E+00
    6.50000E+00    2.14195E+01    3.10179E+00
    7.50000E+00    2.13417E+01    2.54603E+00
    8.50000E+00    2.12008E+01    2.79898E+00
    9.50000E+00    2.09913E+01    3.10071E+00
    1.05000E+01    2.07407E+01    3.13065E+00
    1.15000E+01    2.04705E+01    2.93157E+00
    1.25000E+01    2.03128E+01    2.54333E+00
    1.35000E+01    2.00718E+01    3.03712E+00
    1.45000E+01    1.96952E+01    3.09838E+00
    1.55000E+01    1.94038E+01    2.87064E+00
    1.65000E+01    1.92250E+01    3.19618E+00
    1.75000E+01    1.89974E+01    3.35329E+00
    1.85000E+01    1.87915E+01    3.49333E+00
    1.95000E+01    1.88409E+01    3.57495E+00
    2.05000E+01    1.92628E+01    3.51470E+00
    2.15000E+01    2.01439E+01    3.34153E+00
    2.25000E+01    2.13033E+01    3.17946E+00
    2.35000E+01    2.25520E+01    3.06019E+00
    2.45000E+01    2.38721E+01    2.96573E+00
    2.55000E+01    2.52165E+01    2.88002E+00
    2.65000E+01    2.65845E+01    2.81194E+00
    2.75000E+01    2.79954E+01    2.75258E+00
    2.85000E+01    2.93691E+01    2.69886E+00
    2.95000E+01    3.07643E+01    2.64971E+00
    3.05000E+01    3.21482E+01    2.60549E+00
    3.15000E+01    3.35017E+01    2.56729E+00
    3.25000E+01    3.48676E+01    2.53113E+00
    3.35000E+01    3.61961E+01    2.49615E+00
    3.45000E+01    3.75104E+01    2.46214E+00
    3.55000E+01    3.88332E+01    2.42720E+00
    3.65000E+01    4.01251E+01    2.39574E+00
    3.75000E+01    4.13907E+01    2.36679E+00
    3.85000E+01    4.26588E+01    2.33989E+00
    3.95000E+01    4.39234E+01    2.31455E+00
    4.05000E+01    4.51646E+01    2.28826E+00
    4.15000E+01    4.63893E+01    2.26181E+00
    4.25000E+01    4.76080E+01    2.23507E+00
    4.35000E+01    4.88279E+01    2.20947E+00
    4.45000E+01    5.00337E+01    2.18550E+00
    4.55000E+01    5.12192E+01    2.16326E+00
    4.65000E+01    5.23957E+01    2.14214E+00
    4.75000E+01    5.35681E+01    2.12243E+00
    4.85000E+01    5.47402E+01    2.10267E+00
    4.95000E+01    5.58945E+01    2.08298E+00
    5.05000E+01    5.70371E+01    2.06285E+00
    5.15000E+01    5.81791E+01    2.04151E+00
    5.25000E+01    5.93062E+01    2.02188E+00
    5.35000E+01    6.04229E+01    2.00316E+00
    5.45000E+01    6.15263E+01    1.98561E+00
    5.55000E+01    6.26279E+01    1.96880E+00
    5.65000E+01    6.37261E+01    1.95269E+00
    5.75000E+01    6.48079E+01    1.93764E+00
    5.85000E+01    6.58843E+01    1.92327E+00
    5.95000E+01    6.69478E+01    1.90822E+00
    6.05000E+01    6.80036E+01    1.89322E+00
    6.15000E+01    6.90524E+01    1.87717E+00
    6.25000E+01    7.00851E+01    1.86154E+00
    6.35000E+01    7.11132E+01    1.84662E+00
    6.45000E+01    7.21307E+01    1.83252E+00
    6.55000E+01    7.31399E+01    1.81898E+00
    6.65000E+01    7.41369E+01    1.80609E+00
    6.75000E+01    7.51185E+01    1.79365E+00
    6.85000E+01    7.60993E+01    1.78162E+00
    6.95000E+01    7.70688E+01    1.76999E+00
    7.05000E+01    7.80262E+01    1.75889E+00
    7.15000E+01    7.89727E+01    1.74848E+00
    7.25000E+01    7.99087E+01    1.73718E+00
    7.35000E+01    8.08388E+01    1.72602E+00
    7.45000E+01    8.17558E+01    1.71370E+00
    7.55000E+01    8.26605E+01    1.70212E+00
    7.65000E+01    8.35561E+01    1.69101E+00
    7.75000E+01    8.44420E+01    1.68045E+00
    7.85000E+01    8.53194E+01    1.67025E+00
    7.95000E+01    8.61830E+01    1.66017E+00
    8.05000E+01    8.70354E+01    1.65044E+00
    8.15000E+01    8.78799E+01    1.64113E+00
    8.25000E+01    8.87123E+01    1.63208E+00
    8.35000E+01    8.95298E+01    1.62317E+00
    8.45000E+01    9.03412E+01    1.61464E+00
    8.55000E+01    9.11433E+01    1.60647E+00
    8.65000E+01    9.19352E+01    1.59853E+00
    8.75000E+01    9.27120E+01    1.59063E+00
    8.85000E+01    9.34763E+01    1.58325E+00
    8.95000E+01    9.42373E+01    1.57428E+00
    9.05000E+01    9.49863E+01    1.56554E+00
    9.15000E+01    9.57192E+01    1.55722E+00
    9.25000E+01    9.64400E+01    1.54933E+00
    9.35000E+01    9.71567E+01    1.54122E+00
    9.45000E+01    9.78607E+01    1.53367E+00
    9.55000E+01    9.85470E+01    1.52616E+00
    9.65000E+01    9.92281E+01    1.51883E+00
    9.75000E+01    9.98959E+01    1.51180E+00
    9.85000E+01    1.00549E+02    1.50480E+00
    9.95000E+01    1.01201E+02    1.49808E+00
    1.00500E+02    1.01835E+02    1.49150E+00
    1.01500E+02    1.02453E+02    1.48508E+00
    1.02500E+02    1.03070E+02    1.47886E+00
    1.03500E+02    1.03669E+02    1.47272E+00
    1.04500E+02    1.04259E+02    1.46681E+00
    1.05500E+02    1.04837E+02    1.46097E+00
    1.06500E+02    1.05403E+02    1.45534E+00
    1.07500E+02    1.05963E+02    1.44975E+00
    1.08500E+02    1.06502E+02    1.44443E+00
    1.09500E+02    1.07040E+02    1.43874E+00
    1.10500E+02    1.07557E+02    1.43343E+00
    1.11500E+02    1.08076E+02    1.42791E+00
    1.12500E+02    1.08575E+02    1.42277E+00
    1.13500E+02    1.09070E+02    1.41745E+00
    1.14500E+02    1.09549E+02    1.41244E+00
    1.15500E+02    1.10023E+02    1.40734E+00
    1.16500E+02    1.10484E+02    1.40239E+00
    1.17500E+02    1.10938E+02    1.39747E+00
    1.18500E+02    1.11377E+02    1.39265E+00
    1.19500E+02    1.11813E+02    1.38788E+00
    1.20500E+02    1.12231E+02    1.38318E+00
    1.21500E+02    1.12644E+02    1.37857E+00
    1.22500E+02    1.13044E+02    1.37400E+00
    1.23500E+02    1.13435E+02    1.36950E+00
    1.24500E+02    1.13820E+02    1.36504E+00
    1.25500E+02    1.14190E+02    1.36065E+00
    1.26500E+02    1.14551E+02    1.35634E+00
    1.27500E+02    1.14903E+02    1.35206E+00
    1.28500E+02    1.15248E+02    1.34784E+00
    1.29500E+02    1.15576E+02    1.34368E+00
    1.30500E+02    1.15901E+02    1.33954E+00
    1.31500E+02    1.16214E+02    1.33548E+00
    1.32500E+02    1.16511E+02    1.33146E+00
    1.33500E+02    1.16811E+02    1.32743E+00
    1.34500E+02    1.17091E+02    1.32346E+00
    1.35500E+02    1.17364E+02    1.31951E+00
    1.36500E+02    1.17628E+02    1.31623E+00
    1.37500E+02    1.17883E+02    1.31326E+00
    1.38500E+02    1.18131E+02    1.31029E+00
    1.39500E+02    1.18362E+02    1.30735E+00
    1.40500E+02    1.18596E+02    1.30437E+00
    1.41500E+02    1.18818E+02    1.30139E+00
    1.42500E+02    1.19032E+02    1.29845E+00
    1.43500E+02    1.19239E+02    1.29553E+00
    1.44500E+02    1.19432E+02    1.29264E+00
    1.45500E+02    1.19628E+02    1.28970E+00
    1.46500E+02    1.19809E+02    1.28679E+00
    1.47500E+02    1.19986E+02    1.28390E+00
    1.48500E+02    1.20154E+02    1.28103E+00
    1.49500E+02    1.20311E+02    1.27820E+00
    1.50500E+02    1.20466E+02    1.27537E+00
    1.51500E+02    1.20607E+02    1.27256E+00
    1.52500E+02    1.20750E+02    1.26973E+00
    1.53500E+02    1.20879E+02    1.26692E+00
    1.54500E+02    1.21000E+02    1.26413E+00
    1.55500E+02    1.21118E+02    1.26134E+00
    1.56500E+02    1.21221E+02    1.25860E+00
    1.57500E+02    1.21326E+02    1.25583E+00
    1.58500E+02    1.21414E+02    1.25311E+00
    1.59500E+02    1.21500E+02    1.25040E+00
    1.60500E+02    1.21580E+02    1.24768E+00
    1.61500E+02    1.21650E+02    1.24500E+00
    1.62500E+02    1.21719E+02    1.24229E+00
    1.63500E+02    1.21771E+02    1.23965E+00
    1.64500E+02    1.21824E+02    1.23699E+00
    1.65500E+02    1.21866E+02    1.23435E+00
    1.66500E+02    1.21899E+02    1.23173E+00
    1.67500E+02    1.21930E+02    1.22910E+00
    1.68500E+02    1.21947E+02    1.22653E+00
    1.69500E+02    1.21964E+02    1.22393E+00
    1.70500E+02    1.21969E+02    1.22137E+00
    1.71500E+02    1.21967E+02    1.21883E+00
    1.72500E+02    1.21961E+02    1.21629E+00
    1.73500E+02    1.21943E+02    1.21379E+00
    1.74500E+02    1.21924E+02    1.21127E+00
    1.75500E+02    1.21891E+02    1.20879E+00
    1.76500E+02    1.21855E+02    1.20632E+00
    1.77500E+02    1.21812E+02    1.20389E+00
    1.78500E+02    1.21759E+02    1.20150E+00
    1.79500E+02    1.21702E+02    1.19914E+00
    1.80500E+02    1.21634E+02    1.19683E+00
    1.81500E+02    1.21563E+02    1.19454E+00
    1.82500E+02    1.21484E+02    1.19228E+00
    1.83500E+02    1.21399E+02    1.19004E+00
    1.84500E+02    1.21309E+02    1.18781E+00
    1.85500E+02    1.21209E+02    1.18560E+00
    1.86500E+02    1.21106E+02    1.18337E+00
    1.87500E+02    1.20992E+02    1.18117E+00
    1.88500E+02    1.20873E+02    1.17900E+00
    1.89500E+02    1.20747E+02    1.17685E+00
    1.90500E+02    1.20612E+02    1.17470E+00
    1.91500E+02    1.20473E+02    1.17254E+00
    1.92500E+02    1.20327E+02    1.17041E+00
    1.93500E+02    1.20175E+02    1.16829E+00
    1.94500E+02    1.20016E+02    1.16619E+00
    1.95500E+02    1.19848E+02    1.16410E+00
    1.96500E+02    1.19674E+02    1.16202E+00
    1.97500E+02    1.19492E+02    1.15997E+00
    1.98500E+02    1.19307E+02    1.15791E+00
    1.99500E+02    1.19114E+02    1.15587E+00
    2.00500E+02    1.18913E+02    1.15385E+00
    2.01500E+02    1.18705E+02    1.15184E+00
    2.02500E+02    1.18489E+02    1.14986E+00
    2.03500E+02    1.18270E+02    1.14786E+00
    2.04500E+02    1.18042E+02    1.14590E+00
    2.05500E+02    1.17808E+02    1.14394E+00
    2.06500E+02    1.17565E+02    1.14200E+00
    2.07500E+02    1.17318E+02    1.14008E+00
    2.08500E+02    1.17065E+02    1.13812E+00
    2.09500E+02    1.16803E+02    1.13620E+00
    2.10500E+02    1.16533E+02    1.13427E+00
    2.11500E+02    1.16260E+02    1.13232E+00
    2.12500E+02    1.15980E+02    1.13039E+00
    2.13500E+02    1.15691E+02    1.12845E+00
    2.14500E+02    1.15397E+02    1.12654E+00
    2.15500E+02    1.15098E+02    1.12462E+00
    2.16500E+02    1.14791E+02    1.12273E+00
    2.17500E+02    1.14475E+02    1.12083E+00
    2.18500E+02    1.14157E+02    1.11893E+00
    2.19500E+02    1.13832E+02    1.11706E+00
    2.20500E+02    1.13497E+02    1.11518E+00
    2.21500E+02    1.13161E+02    1.11330E+00
    2.22500E+02    1.12816E+02    1.11143E+00
    2.23500E+02    1.12464E+02    1.10956E+00
    2.24500E+02    1.12109E+02    1.10765E+00
    2.25500E+02    1.11746E+02    1.10576E+00
    2.26500E+02    1.11376E+02    1.10384E+00
    2.27500E+02    1.11003E+02    1.10193E+00
    2.28500E+02    1.10622E+02    1.10004E+00
    2.29500E+02    1.10236E+02    1.09817E+00
    2.30500E+02    1.09843E+02    1.09607E+00
    2.31500E+02    1.09444E+02    1.09360E+00
    2.32500E+02    1.09040E+02    1.09100E+00
    2.33500E+02    1.08628E+02    1.08846E+00
    2.34500E+02    1.08210E+02    1.08597E+00
    2.35500E+02    1.07785E+02    1.08351E+00
    2.36500E+02    1.07353E+02    1.08108E+00
    2.37500E+02    1.06913E+02    1.07864E+00
    2.38500E+02    1.06466E+02    1.07626E+00
    2.39500E+02    1.06013E+02    1.07377E+00
    2.40500E+02    1.05552E+02    1.07132E+00
    2.41500E+02    1.05085E+02    1.06886E+00
    2.42500E+02    1.04607E+02    1.06641E+00
    2.43500E+02    1.04126E+02    1.06398E+00
    2.44500E+02    1.03633E+02    1.06155E+00
    2.45500E+02    1.03138E+02    1.05916E+00
    2.46500E+02    1.02630E+02    1.05675E+00
    2.47500E+02    1.02117E+02    1.05435E+00
    2.48500E+02    1.01596E+02    1.05197E+00
    2.49500E+02    1.01066E+02    1.04959E+00
    2.50500E+02    1.00530E+02    1.04723E+00
    2.51500E+02    9.62524E+01    1.05178E+00
    2.52500E+02    9.50826E+01    1.05034E+00
    2.53500E+02    9.38766E+01    1.04890E+00
    2.54500E+02    9.26343E+01    1.04742E+00
    2.55500E+02    9.36626E+01    1.04213E+00
    2.56500E+02    9.24001E+01    1.04064E+00
    2.57500E+02    9.05775E+01    1.04001E+00
    2.58500E+02    8.87210E+01    1.03928E+00
    2.59500E+02    8.68286E+01    1.03847E+00
    2.60500E+02    8.48997E+01    1.03761E+00
    2.61500E+02    8.29330E+01    1.03664E+00
    2.62500E+02    8.09284E+01    1.03563E+00
    2.63500E+02    7.88828E+01    1.03449E+00
    2.64500E+02    7.67952E+01    1.03328E+00
    2.65500E+02    7.46616E+01    1.03195E+00
    2.66500E+02    7.24780E+01    1.03046E+00
    2.67500E+02    7.02390E+01    1.02890E+00
    2.68500E+02    6.79382E+01    1.02723E+00
    2.69500E+02    6.55698E+01    1.02552E+00
    2.70500E+02    6.31263E+01    1.02374E+00
    2.71500E+02    6.06008E+01    1.02188E+00
    2.72500E+02    5.79835E+01    1.01998E+00
    2.73500E+02    5.52653E+01    1.01796E+00
    2.74500E+02    5.24325E+01    1.01590E+00
    2.75500E+02    4.94664E+01    1.01376E+00
    2.76500E+02    4.63369E+01    1.01156E+00
    2.77500E+02    4.29927E+01    1.00934E+00
    2.78500E+02    3.93610E+01    1.00716E+00
    2.79500E+02    3.53327E+01    1.00507E+00
    2.80500E+02    3.07386E+01    1.00311E+00
    2.81500E+02    2.52591E+01    1.00132E+00
    2.82500E+02    1.80492E+01    9.99604E-01
    2.83500E+02    0.00000E+00    0.00000E+00
    2.84500E+02    0.00000E+00    0.00000E+00
    2.85500E+02    0.00000E+00    0.00000E+00
    2.86500E+02    0.00000E+00    0.00000E+00
    2.87500E+02    0.00000E+00    0.00000E+00
    2.88500E+02    0.00000E+00    0.00000E+00
    2.89500E+02    0.00000E+00    0.00000E+00
    2.90500E+02    0.00000E+00    0.00000E+00
    2.91500E+02    0.00000E+00    0.00000E+00
    2.92500E+02    0.00000E+00    0.00000E+00
    2.93500E+02    0.00000E+00    0.00000E+00
    2.94500E+02    0.00000E+00    0.00000E+00
    2.95500E+02    0.00000E+00    0.00000E+00
    2.96500E+02    0.00000E+00    0.00000E+00
    2.97500E+02    0.00000E+00    0.00000E+00
    2.98500E+02    0.00000E+00    0.00000E+00
    2.99500E+02    0.00000E+00    0.00000E+00
    3.00500E+02    0.00000E+00    0.00000E+00
    3.01500E+02    0.00000E+00    0.00000E+00
    3.02500E+02    0.00000E+00    0.00000E+00
    3.03500E+02    0.00000E+00    0.00000E+00
    3.04500E+02    0.00000E+00    0.00000E+00
    3.05500E+02    0.00000E+00    0.00000E+00
    3.06500E+02    0.00000E+00    0.00000E+00
    3.07500E+02    0.00000E+00    0.00000E+00
    3.08500E+02    0.00000E+00    0.00000E+00
    3.09500E+02    0.00000E+00    0.00000E+00
    3.10500E+02    0.00000E+00    0.00000E+00
    3.11500E+02    0.00000E+00    0.00000E+00
    3.12500E+02    0.00000E+00    0.00000E+00
    3.13500E+02    0.00000E+00    0.00000E+00
    3.14500E+02    0.00000E+00    0.00000E+00
    3.15500E+02    0.00000E+00    0.00000E+00
    3.16500E+02    0.00000E+00    0.00000E+00
    3.17500E+02    0.00000E+00    0.00000E+00
    3.18500E+02    0.00000E+00    0.00000E+00
    3.19500E+02    0.00000E+00    0.00000E+00
    3.20500E+02    0.00000E+00    0.00000E+00
    3.21500E+02    0.00000E+00    0.00000E+00
    3.22500E+02    0.00000E+00    0.00000E+00
    3.23500E+02    0.00000E+00    0.00000E+00
    3.24500E+02    0.00000E+00    0.00000E+00
    3.25500E+02    0.00000E+00    0.00000E+00
    3.26500E+02    0.00000E+00    0.00000E+00
    3.27500E+02    0.00000E+00    0.00000E+00
    3.28500E+02    0.00000E+00    0.00000E+00
    3.29500E+02    0.00000E+00    0.00000E+00
    3.30500E+02    0.00000E+00    0.00000E+00
    3.31500E+02    0.00000E+00    0.00000E+00
    3.32500E+02    0.00000E+00    0.00000E+00
    3.33500E+02    0.00000E+00    0.00000E+00
    3.34500E+02    0.00000E+00    0.00000E+00
    3.35500E+02    0.00000E+00    0.00000E+00
    3.36500E+02    0.00000E+00    0.00000E+00
    3.37500E+02    0.00000E+00    0.00000E+00
    3.38500E+02    0.00000E+00    0.00000E+00
    3.39500E+02    0.00000E+00    0.00000E+00
    3.40500E+02    0.00000E+00    0.00000E+00
    3.41500E+02    0.00000E+00    0.00000E+00
    3.42500E+02    0.00000E+00    0.00000E+00
    3.43500E+02    0.00000E+00    0.00000E+00
    3.44500E+02    0.00000E+00    0.00000E+00
    3.45500E+02    0.00000E+00    0.00000E+00
    3.46500E+02    0.00000E+00    0.00000E+00
    3.47500E+02    0.00000E+00    0.00000E+00
    3.48500E+02    0.00000E+00    0.00000E+00
    3.49500E+02    0.00000E+00    0.00000E+00
    3.50500E+02    0.00000E+00    0.00000E+00
    3.51500E+02    0.00000E+00    0.00000E+00
    3.52500E+02    0.00000E+00    0.00000E+00
    3.53500E+02    0.00000E+00    0.00000E+00
    3.54500E+02    0.00000E+00    0.00000E+00
    3.55500E+02    0.00000E+00    0.00000E+00
    3.56500E+02    0.00000E+00    0.00000E+00
    3.57500E+02    0.00000E+00    0.00000E+00
    3.58500E+02    0.00000E+00    0.00000E+00
    3.59500E+02    0.00000E+00    0.00000E+00
