           time        x coord        y coord        z coord         radius           dens           temp             ye            |v|             vx             vy             vz
            sec             km             km             km             km         g/cm^3             GK              -           cm/s           cm/s           cm/s           cm/s
     1.0503E-02     5.8803E+01     2.9620E+01     7.7902E+01     1.0200E+02     1.1683E+08     1.1289E+01     7.3786E-02     5.0570E+09    -2.1678E+09     4.5218E+09     6.5352E+08
     1.0644E-02     5.5461E+01     3.5864E+01     7.8818E+01     1.0283E+02     1.1256E+08     1.1206E+01     7.6801E-02     5.0444E+09    -2.5536E+09     4.3027E+09     6.4169E+08
     1.0786E-02     5.1590E+01     4.1775E+01     7.9724E+01     1.0374E+02     1.0647E+08     1.1068E+01     7.9600E-02     5.0325E+09    -2.9158E+09     4.0511E+09     6.4234E+08
     1.0927E-02     4.7226E+01     4.7310E+01     8.0646E+01     1.0475E+02     9.8456E+07     1.0872E+01     8.2336E-02     5.0244E+09    -3.2524E+09     3.7717E+09     6.6369E+08
     1.1069E-02     4.2405E+01     5.2429E+01     8.1604E+01     1.0586E+02     9.0481E+07     1.0675E+01     8.4837E-02     5.0152E+09    -3.5609E+09     3.4638E+09     6.8895E+08
     1.1210E-02     3.7170E+01     5.7092E+01     8.2592E+01     1.0706E+02     8.3792E+07     1.0476E+01     8.7387E-02     4.9997E+09    -3.8384E+09     3.1250E+09     7.0565E+08
     1.1352E-02     3.1566E+01     6.1251E+01     8.3594E+01     1.0833E+02     7.9099E+07     1.0312E+01     8.9789E-02     4.9719E+09    -4.0812E+09     2.7503E+09     7.0732E+08
     1.1493E-02     2.5644E+01     6.4851E+01     8.4587E+01     1.0963E+02     7.6618E+07     1.0244E+01     9.2067E-02     4.9289E+09    -4.2862E+09     2.3329E+09     6.9327E+08
     1.1634E-02     1.9463E+01     6.7825E+01     8.5549E+01     1.1089E+02     7.6577E+07     1.0286E+01     9.4210E-02     4.8685E+09    -4.4474E+09     1.8660E+09     6.6371E+08
     1.1776E-02     1.3090E+01     7.0106E+01     8.6459E+01     1.1208E+02     7.8685E+07     1.0432E+01     9.6261E-02     4.7948E+09    -4.5574E+09     1.3551E+09     6.1930E+08
     1.1917E-02     6.6001E+00     7.1646E+01     8.7296E+01     1.1313E+02     8.2116E+07     1.0623E+01     9.8334E-02     4.7176E+09    -4.6113E+09     8.2173E+08     5.6288E+08
     1.2059E-02     7.0656E-02     7.2434E+01     8.8050E+01     1.1402E+02     8.5299E+07     1.0751E+01     1.0043E-01     4.6513E+09    -4.6145E+09     2.9563E+08     5.0312E+08
     1.2200E-02    -6.4338E+00     7.2496E+01     8.8719E+01     1.1475E+02     8.7366E+07     1.0843E+01     1.0253E-01     4.6032E+09    -4.5771E+09    -2.0369E+08     4.4476E+08
     1.2342E-02    -1.2861E+01     7.1876E+01     8.9311E+01     1.1536E+02     8.7579E+07     1.0870E+01     1.0448E-01     4.5738E+09    -4.5075E+09    -6.6809E+08     3.9487E+08
     1.2483E-02    -1.9170E+01     7.0623E+01     8.9839E+01     1.1587E+02     8.6119E+07     1.0842E+01     1.0636E-01     4.5580E+09    -4.4094E+09    -1.0995E+09     3.5204E+08
     1.2624E-02    -2.5317E+01     6.8775E+01     9.0312E+01     1.1631E+02     8.3986E+07     1.0788E+01     1.0820E-01     4.5483E+09    -4.2788E+09    -1.5091E+09     3.1866E+08
     1.2766E-02    -3.1255E+01     6.6363E+01     9.0745E+01     1.1669E+02     8.1567E+07     1.0725E+01     1.0997E-01     4.5398E+09    -4.1134E+09    -1.8983E+09     2.9456E+08
     1.2907E-02    -3.6933E+01     6.3413E+01     9.1150E+01     1.1702E+02     7.9538E+07     1.0668E+01     1.1161E-01     4.5294E+09    -3.9088E+09    -2.2711E+09     2.8081E+08
     1.3049E-02    -4.2297E+01     5.9952E+01     9.1541E+01     1.1732E+02     7.7572E+07     1.0615E+01     1.1335E-01     4.5178E+09    -3.6705E+09    -2.6199E+09     2.7286E+08
     1.3190E-02    -4.7297E+01     5.6014E+01     9.1926E+01     1.1758E+02     7.6017E+07     1.0564E+01     1.1498E-01     4.5037E+09    -3.3967E+09    -2.9449E+09     2.7148E+08
     1.3331E-02    -5.1889E+01     5.1635E+01     9.2311E+01     1.1781E+02     7.5442E+07     1.0531E+01     1.1653E-01     4.4889E+09    -3.0918E+09    -3.2429E+09     2.7353E+08
     1.3473E-02    -5.6035E+01     4.6858E+01     9.2700E+01     1.1802E+02     7.4400E+07     1.0496E+01     1.1841E-01     4.4763E+09    -2.7682E+09    -3.5068E+09     2.7745E+08
     1.3614E-02    -5.9707E+01     4.1729E+01     9.3098E+01     1.1821E+02     7.4425E+07     1.0495E+01     1.1999E-01     4.4665E+09    -2.4227E+09    -3.7415E+09     2.8535E+08
     1.3756E-02    -6.2886E+01     3.6292E+01     9.3510E+01     1.1839E+02     7.4618E+07     1.0512E+01     1.2180E-01     4.4629E+09    -2.0710E+09    -3.9420E+09     2.9828E+08
     1.3897E-02    -6.5564E+01     3.0595E+01     9.3946E+01     1.1858E+02     7.4578E+07     1.0529E+01     1.2376E-01     4.4649E+09    -1.7156E+09    -4.1098E+09     3.1909E+08
     1.4039E-02    -6.7742E+01     2.4683E+01     9.4417E+01     1.1880E+02     7.5148E+07     1.0575E+01     1.2578E-01     4.4741E+09    -1.3637E+09    -4.2469E+09     3.4802E+08
     1.4180E-02    -6.9423E+01     1.8597E+01     9.4935E+01     1.1907E+02     7.5229E+07     1.0599E+01     1.2797E-01     4.4875E+09    -1.0158E+09    -4.3540E+09     3.8527E+08
     1.4321E-02    -7.0618E+01     1.2379E+01     9.5508E+01     1.1942E+02     7.5680E+07     1.0628E+01     1.3016E-01     4.5055E+09    -6.7507E+08    -4.4343E+09     4.2555E+08
     1.4463E-02    -7.1336E+01     6.0679E+00     9.6141E+01     1.1987E+02     7.5348E+07     1.0640E+01     1.3248E-01     4.5235E+09    -3.4103E+08    -4.4862E+09     4.6824E+08
     1.4604E-02    -7.1585E+01    -2.9844E-01     9.6830E+01     1.2042E+02     7.4681E+07     1.0638E+01     1.3463E-01     4.5408E+09    -1.1460E+07    -4.5124E+09     5.0681E+08
     1.4746E-02    -7.1371E+01    -6.6829E+00     9.7571E+01     1.2107E+02     7.3576E+07     1.0630E+01     1.3716E-01     4.5549E+09     3.1406E+08    -4.5119E+09     5.3983E+08
     1.4887E-02    -7.0702E+01    -1.3046E+01     9.8355E+01     1.2183E+02     7.1972E+07     1.0601E+01     1.3939E-01     4.5616E+09     6.3172E+08    -4.4822E+09     5.6496E+08
     1.5029E-02    -6.9583E+01    -1.9345E+01     9.9167E+01     1.2268E+02     7.0255E+07     1.0556E+01     1.4159E-01     4.5589E+09     9.4660E+08    -4.4214E+09     5.8208E+08
     1.5170E-02    -6.8025E+01    -2.5536E+01     9.9998E+01     1.2361E+02     6.8666E+07     1.0509E+01     1.4376E-01     4.5457E+09     1.2571E+09    -4.3281E+09     5.9197E+08
     1.5311E-02    -6.6038E+01    -3.1569E+01     1.0083E+02     1.2460E+02     6.7906E+07     1.0498E+01     1.4574E-01     4.5157E+09     1.5567E+09    -4.1974E+09     5.9138E+08
     1.5453E-02    -6.3634E+01    -3.7390E+01     1.0166E+02     1.2563E+02     6.8201E+07     1.0535E+01     1.4737E-01     4.4671E+09     1.8433E+09    -4.0272E+09     5.8221E+08
     1.5594E-02    -6.0828E+01    -4.2940E+01     1.0248E+02     1.2667E+02     6.9764E+07     1.0620E+01     1.4902E-01     4.3982E+09     2.1238E+09    -3.8095E+09     5.6736E+08
     1.5736E-02    -5.7635E+01    -4.8154E+01     1.0327E+02     1.2769E+02     7.2334E+07     1.0721E+01     1.5069E-01     4.3192E+09     2.3888E+09    -3.5562E+09     5.5017E+08
     1.5875E-02    -5.4117E+01    -5.2920E+01     1.0403E+02     1.2865E+02     7.6271E+07     1.0863E+01     1.5202E-01     4.2296E+09     2.6430E+09    -3.2585E+09     5.3466E+08
     1.6013E-02    -5.0322E+01    -5.7203E+01     1.0475E+02     1.2953E+02     7.9934E+07     1.1001E+01     1.5342E-01     4.1534E+09     2.8665E+09    -2.9598E+09     5.2337E+08
     1.6152E-02    -4.6201E+01    -6.1097E+01     1.0547E+02     1.3035E+02     8.2701E+07     1.1106E+01     1.5474E-01     4.0929E+09     3.0713E+09    -2.6560E+09     5.1471E+08
     1.6288E-02    -4.1894E+01    -6.4518E+01     1.0617E+02     1.3111E+02     8.4060E+07     1.1159E+01     1.5587E-01     4.0522E+09     3.2479E+09    -2.3696E+09     5.0629E+08
     1.6420E-02    -3.7515E+01    -6.7461E+01     1.0683E+02     1.3180E+02     8.3866E+07     1.1163E+01     1.5716E-01     4.0308E+09     3.4011E+09    -2.1047E+09     5.0005E+08
     1.6551E-02    -3.2975E+01    -7.0049E+01     1.0748E+02     1.3246E+02     8.2616E+07     1.1131E+01     1.5850E-01     4.0215E+09     3.5349E+09    -1.8524E+09     4.9495E+08
     1.6682E-02    -2.8246E+01    -7.2324E+01     1.0813E+02     1.3312E+02     8.0216E+07     1.1061E+01     1.5977E-01     4.0229E+09     3.6551E+09    -1.6080E+09     4.8810E+08
     1.6815E-02    -2.3317E+01    -7.4302E+01     1.0877E+02     1.3378E+02     7.7178E+07     1.0967E+01     1.6112E-01     4.0305E+09     3.7603E+09    -1.3684E+09     4.8187E+08
     1.6949E-02    -1.8228E+01    -7.5975E+01     1.0941E+02     1.3444E+02     7.3629E+07     1.0858E+01     1.6242E-01     4.0427E+09     3.8515E+09    -1.1330E+09     4.7498E+08
     1.7084E-02    -1.2963E+01    -7.7347E+01     1.1005E+02     1.3514E+02     6.9699E+07     1.0738E+01     1.6388E-01     4.0572E+09     3.9286E+09    -8.9751E+08     4.7044E+08
     1.7221E-02    -7.5184E+00    -7.8416E+01     1.1069E+02     1.3586E+02     6.5609E+07     1.0615E+01     1.6533E-01     4.0749E+09     3.9940E+09    -6.5877E+08     4.6783E+08
     1.7361E-02    -1.8938E+00    -7.9168E+01     1.1135E+02     1.3664E+02     6.1742E+07     1.0442E+01     1.6694E-01     4.0938E+09     4.0456E+09    -4.1759E+08     4.6665E+08
     1.7503E-02     3.8538E+00    -7.9590E+01     1.1200E+02     1.3746E+02     5.8134E+07     1.0262E+01     1.6830E-01     4.1095E+09     4.0795E+09    -1.7955E+08     4.6166E+08
     1.7644E-02     9.6382E+00    -7.9677E+01     1.1265E+02     1.3832E+02     5.4713E+07     1.0103E+01     1.6980E-01     4.1233E+09     4.0980E+09     5.6380E+07     4.5310E+08
     1.7785E-02     1.5438E+01    -7.9431E+01     1.1329E+02     1.3922E+02     5.1351E+07     9.9513E+00     1.7136E-01     4.1351E+09     4.1008E+09     2.9094E+08     4.4529E+08
     1.7927E-02     2.1229E+01    -7.8856E+01     1.1391E+02     1.4016E+02     4.8193E+07     9.8106E+00     1.7269E-01     4.1427E+09     4.0863E+09     5.2099E+08     4.3894E+08
     1.8068E-02     2.6989E+01    -7.7956E+01     1.1453E+02     1.4115E+02     4.5390E+07     9.6925E+00     1.7409E-01     4.1473E+09     4.0556E+09     7.4930E+08     4.3679E+08
     1.8210E-02     3.2693E+01    -7.6735E+01     1.1515E+02     1.4219E+02     4.3064E+07     9.5561E+00     1.7545E-01     4.1462E+09     4.0064E+09     9.7436E+08     4.3706E+08
     1.8351E-02     3.8312E+01    -7.5201E+01     1.1577E+02     1.4327E+02     4.1299E+07     9.4385E+00     1.7680E-01     4.1371E+09     3.9363E+09     1.1952E+09     4.3891E+08
     1.8493E-02     4.3812E+01    -7.3357E+01     1.1639E+02     1.4439E+02     4.0259E+07     9.3759E+00     1.7800E-01     4.1123E+09     3.8364E+09     1.4132E+09     4.4301E+08
     1.8634E-02     4.9138E+01    -7.1201E+01     1.1703E+02     1.4553E+02     4.0391E+07     9.4078E+00     1.7911E-01     4.0581E+09     3.6838E+09     1.6396E+09     4.5747E+08
     1.8776E-02     5.4189E+01    -6.8714E+01     1.1769E+02     1.4666E+02     4.2884E+07     9.6393E+00     1.7996E-01     3.9514E+09     3.4420E+09     1.8792E+09     4.8377E+08
     1.8917E-02     5.8829E+01    -6.5880E+01     1.1840E+02     1.4772E+02     4.8179E+07     9.9302E+00     1.8056E-01     3.8015E+09     3.1057E+09     2.1281E+09     5.2651E+08
     1.9058E-02     6.2960E+01    -6.2703E+01     1.1918E+02     1.4866E+02     5.4364E+07     1.0287E+01     1.8104E-01     3.6599E+09     2.7388E+09     2.3583E+09     5.7603E+08
     1.9200E-02     6.6597E+01    -5.9227E+01     1.2002E+02     1.4949E+02     5.9192E+07     1.0582E+01     1.8154E-01     3.5636E+09     2.4126E+09     2.5501E+09     6.1264E+08
     1.9341E-02     6.9808E+01    -5.5506E+01     1.2091E+02     1.5024E+02     6.2146E+07     1.0694E+01     1.8210E-01     3.5076E+09     2.1358E+09     2.7078E+09     6.3967E+08
     1.9483E-02     7.2657E+01    -5.1578E+01     1.2183E+02     1.5094E+02     6.3035E+07     1.0730E+01     1.8278E-01     3.4817E+09     1.8979E+09     2.8431E+09     6.6105E+08
     1.9624E-02     7.5189E+01    -4.7471E+01     1.2278E+02     1.5159E+02     6.2269E+07     1.0708E+01     1.8348E-01     3.4750E+09     1.6867E+09     2.9618E+09     6.7747E+08
     1.9765E-02     7.7436E+01    -4.3206E+01     1.2375E+02     1.5224E+02     6.0324E+07     1.0645E+01     1.8432E-01     3.4816E+09     1.4931E+09     3.0682E+09     6.9145E+08
     1.9907E-02     7.9417E+01    -3.8797E+01     1.2473E+02     1.5287E+02     5.7804E+07     1.0542E+01     1.8515E-01     3.4968E+09     1.3099E+09     3.1648E+09     7.0410E+08
     2.0048E-02     8.1143E+01    -3.4258E+01     1.2574E+02     1.5352E+02     5.5000E+07     1.0390E+01     1.8612E-01     3.5176E+09     1.1318E+09     3.2531E+09     7.1401E+08
     2.0190E-02     8.2621E+01    -2.9601E+01     1.2675E+02     1.5417E+02     5.2165E+07     1.0236E+01     1.8704E-01     3.5392E+09     9.5845E+08     3.3306E+09     7.1753E+08
     2.0331E-02     8.3853E+01    -2.4841E+01     1.2776E+02     1.5483E+02     4.9335E+07     1.0089E+01     1.8799E-01     3.5614E+09     7.8523E+08     3.3991E+09     7.1648E+08
     2.0473E-02     8.4841E+01    -1.9991E+01     1.2877E+02     1.5550E+02     4.6517E+07     9.9472E+00     1.8896E-01     3.5836E+09     6.1084E+08     3.4584E+09     7.1313E+08
     2.0614E-02     8.5579E+01    -1.5062E+01     1.2978E+02     1.5618E+02     4.3698E+07     9.8077E+00     1.8994E-01     3.6060E+09     4.3318E+08     3.5089E+09     7.0934E+08
     2.0755E-02     8.6065E+01    -1.0070E+01     1.3078E+02     1.5688E+02     4.0963E+07     9.6776E+00     1.9093E-01     3.6280E+09     2.5183E+08     3.5493E+09     7.0810E+08
     2.0897E-02     8.6292E+01    -5.0278E+00     1.3178E+02     1.5760E+02     3.8656E+07     9.5099E+00     1.9190E-01     3.6498E+09     6.8340E+07     3.5802E+09     7.0582E+08
     2.1038E-02     8.6259E+01     5.0112E-02     1.3278E+02     1.5833E+02     3.6606E+07     9.3492E+00     1.9290E-01     3.6674E+09    -1.1506E+08     3.5989E+09     6.9627E+08
     2.1180E-02     8.5966E+01     5.1466E+00     1.3375E+02     1.5908E+02     3.4713E+07     9.2098E+00     1.9390E-01     3.6826E+09    -2.9893E+08     3.6065E+09     6.8227E+08
     2.1321E-02     8.5413E+01     1.0246E+01     1.3470E+02     1.5983E+02     3.2934E+07     9.0801E+00     1.9486E-01     3.6954E+09    -4.8298E+08     3.6025E+09     6.6691E+08
     2.1463E-02     8.4600E+01     1.5331E+01     1.3564E+02     1.6059E+02     3.1250E+07     8.9624E+00     1.9579E-01     3.7060E+09    -6.6731E+08     3.5868E+09     6.5146E+08
     2.1604E-02     8.3526E+01     2.0386E+01     1.3655E+02     1.6136E+02     2.9700E+07     8.8572E+00     1.9670E-01     3.7145E+09    -8.5148E+08     3.5590E+09     6.3688E+08
     2.1746E-02     8.2192E+01     2.5392E+01     1.3744E+02     1.6214E+02     2.8362E+07     8.7503E+00     1.9758E-01     3.7205E+09    -1.0341E+09     3.5193E+09     6.2242E+08
     2.1887E-02     8.0603E+01     3.0335E+01     1.3831E+02     1.6293E+02     2.7229E+07     8.6358E+00     1.9842E-01     3.7236E+09    -1.2123E+09     3.4681E+09     6.0631E+08
     2.2028E-02     7.8765E+01     3.5197E+01     1.3915E+02     1.6373E+02     2.6240E+07     8.5378E+00     1.9924E-01     3.7238E+09    -1.3849E+09     3.4063E+09     5.8846E+08
     2.2170E-02     7.6688E+01     3.9965E+01     1.3997E+02     1.6453E+02     2.5354E+07     8.4505E+00     2.0004E-01     3.7219E+09    -1.5520E+09     3.3344E+09     5.7074E+08
     2.2311E-02     7.4377E+01     4.4624E+01     1.4077E+02     1.6534E+02     2.4554E+07     8.3746E+00     2.0082E-01     3.7182E+09    -1.7138E+09     3.2527E+09     5.5468E+08
     2.2453E-02     7.1843E+01     4.9161E+01     1.4154E+02     1.6617E+02     2.3820E+07     8.3057E+00     2.0158E-01     3.7130E+09    -1.8698E+09     3.1619E+09     5.4114E+08
     2.2594E-02     6.9092E+01     5.3563E+01     1.4230E+02     1.6701E+02     2.3152E+07     8.2438E+00     2.0232E-01     3.7061E+09    -2.0193E+09     3.0621E+09     5.3072E+08
     2.2735E-02     6.6135E+01     5.7819E+01     1.4304E+02     1.6787E+02     2.2548E+07     8.1900E+00     2.0304E-01     3.6976E+09    -2.1617E+09     2.9538E+09     5.2379E+08
     2.2877E-02     6.2981E+01     6.1914E+01     1.4378E+02     1.6874E+02     2.2014E+07     8.1443E+00     2.0376E-01     3.6875E+09    -2.2974E+09     2.8370E+09     5.2070E+08
     2.3018E-02     5.9641E+01     6.5839E+01     1.4452E+02     1.6964E+02     2.1550E+07     8.1037E+00     2.0446E-01     3.6754E+09    -2.4251E+09     2.7120E+09     5.2199E+08
     2.3160E-02     5.6125E+01     6.9582E+01     1.4526E+02     1.7056E+02     2.1156E+07     8.0713E+00     2.0514E-01     3.6613E+09    -2.5450E+09     2.5787E+09     5.2766E+08
     2.3301E-02     5.2446E+01     7.3129E+01     1.4601E+02     1.7152E+02     2.0835E+07     8.0467E+00     2.0581E-01     3.6450E+09    -2.6564E+09     2.4374E+09     5.3774E+08
     2.3443E-02     4.8615E+01     7.6472E+01     1.4678E+02     1.7250E+02     2.0593E+07     8.0303E+00     2.0649E-01     3.6267E+09    -2.7595E+09     2.2875E+09     5.5248E+08
     2.3584E-02     4.4645E+01     7.9596E+01     1.4758E+02     1.7352E+02     2.0422E+07     8.0220E+00     2.0713E-01     3.6062E+09    -2.8534E+09     2.1299E+09     5.7122E+08
     2.3726E-02     4.0549E+01     8.2493E+01     1.4840E+02     1.7456E+02     2.0315E+07     8.0198E+00     2.0781E-01     3.5837E+09    -2.9375E+09     1.9650E+09     5.9345E+08
     2.3867E-02     3.6340E+01     8.5152E+01     1.4926E+02     1.7564E+02     2.0257E+07     8.0215E+00     2.0847E-01     3.5596E+09    -3.0117E+09     1.7940E+09     6.1818E+08
     2.4008E-02     3.2035E+01     8.7565E+01     1.5015E+02     1.7675E+02     2.0234E+07     8.0260E+00     2.0911E-01     3.5345E+09    -3.0757E+09     1.6178E+09     6.4459E+08
     2.4150E-02     2.7646E+01     8.9726E+01     1.5108E+02     1.7788E+02     2.0228E+07     8.0324E+00     2.0976E-01     3.5087E+09    -3.1291E+09     1.4384E+09     6.7125E+08
     2.4291E-02     2.3188E+01     9.1633E+01     1.5205E+02     1.7903E+02     2.0220E+07     8.0388E+00     2.1040E-01     3.4828E+09    -3.1723E+09     1.2572E+09     6.9708E+08
     2.4433E-02     1.8677E+01     9.3282E+01     1.5305E+02     1.8021E+02     2.0201E+07     8.0439E+00     2.1104E-01     3.4568E+09    -3.2051E+09     1.0756E+09     7.2093E+08
     2.4574E-02     1.4127E+01     9.4675E+01     1.5409E+02     1.8140E+02     2.0160E+07     8.0460E+00     2.1162E-01     3.4308E+09    -3.2279E+09     8.9474E+08     7.4191E+08
     2.4716E-02     9.5513E+00     9.5813E+01     1.5515E+02     1.8260E+02     2.0105E+07     8.0469E+00     2.1226E-01     3.4043E+09    -3.2405E+09     7.1532E+08     7.5933E+08
     2.4857E-02     4.9654E+00     9.6699E+01     1.5623E+02     1.8380E+02     2.0044E+07     8.0468E+00     2.1289E-01     3.3768E+09    -3.2429E+09     5.3756E+08     7.7274E+08
     2.4998E-02     3.8368E-01     9.7335E+01     1.5733E+02     1.8501E+02     1.9997E+07     8.0481E+00     2.1351E-01     3.3472E+09    -3.2345E+09     3.6146E+08     7.8154E+08
     2.5140E-02    -4.1791E+00     9.7723E+01     1.5844E+02     1.8620E+02     1.9963E+07     8.0511E+00     2.1413E-01     3.3159E+09    -3.2161E+09     1.8798E+08     7.8526E+08
     2.5281E-02    -8.7071E+00     9.7867E+01     1.5955E+02     1.8738E+02     1.9988E+07     8.0601E+00     2.1472E-01     3.2805E+09    -3.1856E+09     1.6067E+07     7.8319E+08
     2.5423E-02    -1.3185E+01     9.7771E+01     1.6065E+02     1.8853E+02     2.0028E+07     8.0716E+00     2.1534E-01     3.2441E+09    -3.1462E+09    -1.5095E+08     7.7632E+08
