           time        x coord        y coord        z coord         radius           dens           temp             ye            |v|             vx             vy             vz
            sec             km             km             km             km         g/cm^3             GK              -           cm/s           cm/s           cm/s           cm/s
     1.0503E-02    -9.8054E-01    -7.0195E+01    -7.6935E+01     1.0415E+02     1.1484E+08     1.1875E+01     7.0813E-02     4.8092E+09     4.7895E+09    -4.3536E+08    -8.5435E+05
     1.0644E-02     5.8270E+00    -7.0506E+01    -7.6980E+01     1.0455E+02     1.1624E+08     1.1871E+01     7.3151E-02     4.8295E+09     4.8290E+09    -3.1610E+06    -6.9470E+07
     1.0786E-02     1.2640E+01    -7.0198E+01    -7.7154E+01     1.0507E+02     1.1345E+08     1.1808E+01     7.5792E-02     4.8298E+09     4.8064E+09     4.3729E+08    -1.8413E+08
     1.0927E-02     1.9398E+01    -6.9263E+01    -7.7504E+01     1.0574E+02     1.1281E+08     1.1747E+01     7.8042E-02     4.8331E+09     4.7403E+09     8.8567E+08    -3.2290E+08
     1.1069E-02     2.6012E+01    -6.7689E+01    -7.8063E+01     1.0655E+02     1.0938E+08     1.1645E+01     8.0225E-02     4.8105E+09     4.5954E+09     1.3402E+09    -4.7619E+08
     1.1210E-02     3.2376E+01    -6.5472E+01    -7.8830E+01     1.0747E+02     1.0962E+08     1.1616E+01     8.2495E-02     4.7832E+09     4.3939E+09     1.7914E+09    -6.0284E+08
     1.1352E-02     3.8406E+01    -6.2635E+01    -7.9771E+01     1.0845E+02     1.0735E+08     1.1531E+01     8.4718E-02     4.7424E+09     4.1320E+09     2.2165E+09    -7.0976E+08
     1.1493E-02     4.4041E+01    -5.9220E+01    -8.0838E+01     1.0946E+02     1.0446E+08     1.1424E+01     8.6898E-02     4.7046E+09     3.8336E+09     2.6105E+09    -7.8827E+08
     1.1634E-02     4.9234E+01    -5.5279E+01    -8.1993E+01     1.1047E+02     1.0096E+08     1.1300E+01     8.8984E-02     4.6684E+09     3.5092E+09     2.9630E+09    -8.3671E+08
     1.1776E-02     5.3950E+01    -5.0867E+01    -8.3206E+01     1.1145E+02     9.6248E+07     1.1159E+01     9.0947E-02     4.6294E+09     3.1577E+09     3.2709E+09    -8.7273E+08
     1.1917E-02     5.8152E+01    -4.6036E+01    -8.4452E+01     1.1240E+02     9.3121E+07     1.1058E+01     9.3125E-02     4.5982E+09     2.7791E+09     3.5537E+09    -8.8988E+08
     1.2059E-02     6.1801E+01    -4.0838E+01    -8.5717E+01     1.1329E+02     9.0658E+07     1.0982E+01     9.5154E-02     4.5645E+09     2.3762E+09     3.7928E+09    -8.9643E+08
     1.2200E-02     6.4859E+01    -3.5326E+01    -8.6986E+01     1.1411E+02     8.8332E+07     1.0917E+01     9.7243E-02     4.5352E+09     1.9455E+09     3.9979E+09    -8.9409E+08
     1.2342E-02     6.7297E+01    -2.9556E+01    -8.8246E+01     1.1485E+02     8.5172E+07     1.0833E+01     9.9237E-02     4.5076E+09     1.5009E+09     4.1574E+09    -8.8439E+08
     1.2483E-02     6.9103E+01    -2.3581E+01    -8.9478E+01     1.1549E+02     8.2397E+07     1.0756E+01     1.0136E-01     4.4936E+09     1.0532E+09     4.2833E+09    -8.5786E+08
     1.2624E-02     7.0277E+01    -1.7457E+01    -9.0668E+01     1.1604E+02     7.8761E+07     1.0656E+01     1.0358E-01     4.4906E+09     6.0909E+08     4.3725E+09    -8.2216E+08
     1.2766E-02     7.0828E+01    -1.1232E+01    -9.1804E+01     1.1649E+02     7.4143E+07     1.0496E+01     1.0587E-01     4.4984E+09     1.7352E+08     4.4269E+09    -7.7997E+08
     1.2907E-02     7.0771E+01    -4.9537E+00    -9.2876E+01     1.1687E+02     6.8866E+07     1.0265E+01     1.0820E-01     4.5153E+09    -2.4934E+08     4.4487E+09    -7.3129E+08
     1.3049E-02     7.0129E+01     1.3337E+00    -9.3873E+01     1.1718E+02     6.3271E+07     1.0030E+01     1.1051E-01     4.5385E+09    -6.5616E+08     4.4398E+09    -6.7482E+08
     1.3190E-02     6.8924E+01     7.5871E+00    -9.4786E+01     1.1744E+02     5.7644E+07     9.8043E+00     1.1277E-01     4.5648E+09    -1.0472E+09     4.4003E+09    -6.1487E+08
     1.3331E-02     6.7173E+01     1.3763E+01    -9.5617E+01     1.1766E+02     5.2684E+07     9.5877E+00     1.1501E-01     4.5925E+09    -1.4250E+09     4.3300E+09    -5.5821E+08
     1.3473E-02     6.4903E+01     1.9819E+01    -9.6365E+01     1.1786E+02     4.8530E+07     9.3389E+00     1.1721E-01     4.6173E+09    -1.7818E+09     4.2303E+09    -4.9899E+08
     1.3614E-02     6.2144E+01     2.5716E+01    -9.7026E+01     1.1806E+02     4.5024E+07     9.1412E+00     1.1935E-01     4.6364E+09    -2.1150E+09     4.1028E+09    -4.3585E+08
     1.3756E-02     5.8926E+01     3.1413E+01    -9.7601E+01     1.1826E+02     4.2659E+07     9.0165E+00     1.2157E-01     4.6528E+09    -2.4327E+09     3.9482E+09    -3.7766E+08
     1.3897E-02     5.5274E+01     3.6870E+01    -9.8099E+01     1.1848E+02     4.0608E+07     8.9140E+00     1.2365E-01     4.6600E+09    -2.7277E+09     3.7641E+09    -3.2752E+08
     1.4039E-02     5.1218E+01     4.2048E+01    -9.8531E+01     1.1874E+02     3.9787E+07     8.8852E+00     1.2583E-01     4.6629E+09    -3.0046E+09     3.5542E+09    -2.8686E+08
     1.4180E-02     4.6785E+01     4.6910E+01    -9.8916E+01     1.1905E+02     3.9667E+07     8.8989E+00     1.2797E-01     4.6586E+09    -3.2606E+09     3.3171E+09    -2.5969E+08
     1.4321E-02     4.2008E+01     5.1416E+01    -9.9271E+01     1.1943E+02     3.9876E+07     8.9345E+00     1.2999E-01     4.6451E+09    -3.4930E+09     3.0523E+09    -2.4460E+08
     1.4463E-02     3.6916E+01     5.5533E+01    -9.9615E+01     1.1988E+02     4.1286E+07     9.0454E+00     1.3211E-01     4.6286E+09    -3.7050E+09     2.7635E+09    -2.4417E+08
     1.4604E-02     3.1540E+01     5.9221E+01    -9.9966E+01     1.2040E+02     4.3240E+07     9.1971E+00     1.3420E-01     4.6064E+09    -3.8934E+09     2.4489E+09    -2.5296E+08
     1.4746E-02     2.5921E+01     6.2448E+01    -1.0033E+02     1.2098E+02     4.5412E+07     9.3751E+00     1.3615E-01     4.5755E+09    -4.0515E+09     2.1101E+09    -2.5991E+08
     1.4887E-02     2.0095E+01     6.5183E+01    -1.0070E+02     1.2162E+02     4.8233E+07     9.6099E+00     1.3823E-01     4.5432E+09    -4.1825E+09     1.7550E+09    -2.5993E+08
     1.5029E-02     1.4108E+01     6.7406E+01    -1.0106E+02     1.2229E+02     5.1021E+07     9.7767E+00     1.4011E-01     4.5021E+09    -4.2767E+09     1.3847E+09    -2.4794E+08
     1.5170E-02     8.0100E+00     6.9100E+01    -1.0139E+02     1.2296E+02     5.4736E+07     9.9733E+00     1.4215E-01     4.4641E+09    -4.3428E+09     1.0086E+09    -2.2674E+08
     1.5311E-02     1.8402E+00     7.0258E+01    -1.0170E+02     1.2362E+02     5.8050E+07     1.0161E+01     1.4415E-01     4.4271E+09    -4.3773E+09     6.2940E+08    -2.0395E+08
     1.5453E-02    -4.3585E+00     7.0886E+01    -1.0197E+02     1.2426E+02     6.0589E+07     1.0320E+01     1.4604E-01     4.3956E+09    -4.3842E+09     2.6170E+08    -1.7704E+08
     1.5594E-02    -1.0545E+01     7.1004E+01    -1.0220E+02     1.2489E+02     6.2264E+07     1.0438E+01     1.4790E-01     4.3669E+09    -4.3632E+09    -9.2455E+07    -1.5417E+08
     1.5736E-02    -1.6690E+01     7.0632E+01    -1.0241E+02     1.2552E+02     6.3529E+07     1.0531E+01     1.4982E-01     4.3465E+09    -4.3229E+09    -4.3124E+08    -1.3518E+08
     1.5875E-02    -2.2692E+01     6.9803E+01    -1.0259E+02     1.2614E+02     6.4555E+07     1.0600E+01     1.5169E-01     4.3285E+09    -4.2605E+09    -7.5365E+08    -1.2422E+08
     1.6013E-02    -2.8504E+01     6.8551E+01    -1.0275E+02     1.2677E+02     6.5525E+07     1.0645E+01     1.5344E-01     4.3104E+09    -4.1755E+09    -1.0630E+09    -1.2242E+08
     1.6152E-02    -3.4222E+01     6.6864E+01    -1.0293E+02     1.2742E+02     6.6699E+07     1.0697E+01     1.5515E-01     4.2893E+09    -4.0632E+09    -1.3681E+09    -1.3049E+08
     1.6288E-02    -3.9663E+01     6.4800E+01    -1.0312E+02     1.2808E+02     6.7605E+07     1.0737E+01     1.5659E-01     4.2614E+09    -3.9217E+09    -1.6605E+09    -1.4950E+08
     1.6420E-02    -4.4722E+01     6.2433E+01    -1.0333E+02     1.2875E+02     6.9857E+07     1.0818E+01     1.5805E-01     4.2312E+09    -3.7575E+09    -1.9372E+09    -1.7787E+08
     1.6551E-02    -4.9516E+01     5.9723E+01    -1.0359E+02     1.2942E+02     7.2471E+07     1.0915E+01     1.5948E-01     4.1973E+09    -3.5650E+09    -2.2046E+09    -2.1842E+08
     1.6682E-02    -5.4062E+01     5.6654E+01    -1.0391E+02     1.3011E+02     7.5143E+07     1.1014E+01     1.6090E-01     4.1611E+09    -3.3466E+09    -2.4582E+09    -2.6848E+08
     1.6815E-02    -5.8349E+01     5.3227E+01    -1.0430E+02     1.3083E+02     7.7600E+07     1.1103E+01     1.6203E-01     4.1212E+09    -3.1005E+09    -2.6956E+09    -3.2471E+08
     1.6949E-02    -6.2318E+01     4.9474E+01    -1.0478E+02     1.3156E+02     8.0135E+07     1.1198E+01     1.6336E-01     4.0857E+09    -2.8370E+09    -2.9149E+09    -3.8388E+08
     1.7084E-02    -6.5969E+01     4.5396E+01    -1.0533E+02     1.3232E+02     8.1719E+07     1.1255E+01     1.6443E-01     4.0516E+09    -2.5591E+09    -3.1100E+09    -4.4076E+08
     1.7221E-02    -6.9290E+01     4.1000E+01    -1.0598E+02     1.3309E+02     8.2682E+07     1.1294E+01     1.6587E-01     4.0255E+09    -2.2738E+09    -3.2849E+09    -4.9312E+08
     1.7361E-02    -7.2266E+01     3.6299E+01    -1.0670E+02     1.3388E+02     8.2507E+07     1.1292E+01     1.6710E-01     4.0023E+09    -1.9810E+09    -3.4356E+09    -5.3924E+08
     1.7503E-02    -7.4859E+01     3.1348E+01    -1.0749E+02     1.3469E+02     8.1444E+07     1.1257E+01     1.6826E-01     3.9843E+09    -1.6866E+09    -3.5634E+09    -5.7622E+08
     1.7644E-02    -7.7037E+01     2.6230E+01    -1.0833E+02     1.3549E+02     7.9425E+07     1.1194E+01     1.6970E-01     3.9726E+09    -1.3954E+09    -3.6694E+09    -6.0819E+08
     1.7785E-02    -7.8808E+01     2.0978E+01    -1.0920E+02     1.3629E+02     7.6895E+07     1.1106E+01     1.7086E-01     3.9645E+09    -1.1092E+09    -3.7538E+09    -6.2925E+08
     1.7927E-02    -8.0177E+01     1.5619E+01    -1.1011E+02     1.3710E+02     7.3724E+07     1.1004E+01     1.7219E-01     3.9613E+09    -8.2719E+08    -3.8196E+09    -6.4655E+08
     1.8068E-02    -8.1151E+01     1.0180E+01    -1.1103E+02     1.3790E+02     7.0223E+07     1.0889E+01     1.7366E-01     3.9610E+09    -5.5022E+08    -3.8672E+09    -6.5699E+08
     1.8210E-02    -8.1736E+01     4.6857E+00    -1.1196E+02     1.3870E+02     6.6790E+07     1.0777E+01     1.7502E-01     3.9650E+09    -2.7782E+08    -3.8989E+09    -6.6524E+08
     1.8351E-02    -8.1940E+01    -8.3785E-01    -1.1291E+02     1.3951E+02     6.2879E+07     1.0649E+01     1.7638E-01     3.9696E+09    -8.8783E+06    -3.9120E+09    -6.7411E+08
     1.8493E-02    -8.1758E+01    -6.3699E+00    -1.1387E+02     1.4033E+02     5.9218E+07     1.0498E+01     1.7778E-01     3.9768E+09     2.6049E+08    -3.9090E+09    -6.8322E+08
     1.8634E-02    -8.1204E+01    -1.1884E+01    -1.1485E+02     1.4116E+02     5.5973E+07     1.0331E+01     1.7919E-01     3.9822E+09     5.2180E+08    -3.8871E+09    -6.9001E+08
     1.8776E-02    -8.0287E+01    -1.7354E+01    -1.1582E+02     1.4199E+02     5.3042E+07     1.0182E+01     1.8038E-01     3.9834E+09     7.7544E+08    -3.8462E+09    -6.8779E+08
     1.8917E-02    -7.9015E+01    -2.2752E+01    -1.1679E+02     1.4283E+02     5.0512E+07     1.0063E+01     1.8183E-01     3.9814E+09     1.0252E+09    -3.7856E+09    -6.8538E+08
     1.9058E-02    -7.7394E+01    -2.8050E+01    -1.1776E+02     1.4368E+02     4.8252E+07     9.9533E+00     1.8287E-01     3.9741E+09     1.2674E+09    -3.7044E+09    -6.8163E+08
     1.9200E-02    -7.5434E+01    -3.3217E+01    -1.1872E+02     1.4453E+02     4.6501E+07     9.8740E+00     1.8396E-01     3.9611E+09     1.5050E+09    -3.6009E+09    -6.7773E+08
     1.9341E-02    -7.3142E+01    -3.8222E+01    -1.1967E+02     1.4537E+02     4.5100E+07     9.8125E+00     1.8506E-01     3.9437E+09     1.7357E+09    -3.4766E+09    -6.7335E+08
     1.9483E-02    -7.0532E+01    -4.3040E+01    -1.2062E+02     1.4621E+02     4.4018E+07     9.7670E+00     1.8604E-01     3.9217E+09     1.9538E+09    -3.3339E+09    -6.6878E+08
     1.9624E-02    -6.7620E+01    -4.7643E+01    -1.2157E+02     1.4704E+02     4.3275E+07     9.7366E+00     1.8685E-01     3.8980E+09     2.1619E+09    -3.1743E+09    -6.6660E+08
     1.9765E-02    -6.4423E+01    -5.2014E+01    -1.2251E+02     1.4787E+02     4.2486E+07     9.7083E+00     1.8787E-01     3.8761E+09     2.3541E+09    -3.0070E+09    -6.6341E+08
     1.9907E-02    -6.0962E+01    -5.6138E+01    -1.2345E+02     1.4869E+02     4.1868E+07     9.6847E+00     1.8874E-01     3.8547E+09     2.5336E+09    -2.8283E+09    -6.6342E+08
     2.0048E-02    -5.7259E+01    -6.0008E+01    -1.2439E+02     1.4950E+02     4.1043E+07     9.6519E+00     1.8974E-01     3.8376E+09     2.6991E+09    -2.6460E+09    -6.6430E+08
     2.0190E-02    -5.3336E+01    -6.3621E+01    -1.2533E+02     1.5033E+02     4.0364E+07     9.6014E+00     1.9054E-01     3.8224E+09     2.8473E+09    -2.4614E+09    -6.6674E+08
     2.0331E-02    -4.9214E+01    -6.6974E+01    -1.2627E+02     1.5117E+02     3.9442E+07     9.5356E+00     1.9143E-01     3.8103E+09     2.9798E+09    -2.2789E+09    -6.6817E+08
     2.0473E-02    -4.4914E+01    -7.0067E+01    -1.2722E+02     1.5202E+02     3.8441E+07     9.4668E+00     1.9240E-01     3.7999E+09     3.0984E+09    -2.0958E+09    -6.6841E+08
     2.0614E-02    -4.0455E+01    -7.2901E+01    -1.2816E+02     1.5289E+02     3.7395E+07     9.3894E+00     1.9326E-01     3.7903E+09     3.2041E+09    -1.9121E+09    -6.6612E+08
     2.0755E-02    -3.5855E+01    -7.5475E+01    -1.2910E+02     1.5378E+02     3.6322E+07     9.3131E+00     1.9420E-01     3.7813E+09     3.2973E+09    -1.7282E+09    -6.6276E+08
     2.0897E-02    -3.1130E+01    -7.7788E+01    -1.3003E+02     1.5469E+02     3.5223E+07     9.2377E+00     1.9513E-01     3.7729E+09     3.3800E+09    -1.5422E+09    -6.5730E+08
     2.1038E-02    -2.6299E+01    -7.9838E+01    -1.3096E+02     1.5561E+02     3.4191E+07     9.1657E+00     1.9612E-01     3.7645E+09     3.4512E+09    -1.3558E+09    -6.5019E+08
     2.1180E-02    -2.1375E+01    -8.1623E+01    -1.3187E+02     1.5655E+02     3.3130E+07     9.0929E+00     1.9705E-01     3.7546E+09     3.5102E+09    -1.1677E+09    -6.4194E+08
     2.1321E-02    -1.6377E+01    -8.3141E+01    -1.3277E+02     1.5751E+02     3.2101E+07     9.0258E+00     1.9803E-01     3.7442E+09     3.5583E+09    -9.7849E+08    -6.3260E+08
     2.1463E-02    -1.1318E+01    -8.4391E+01    -1.3366E+02     1.5847E+02     3.1119E+07     8.9593E+00     1.9891E-01     3.7322E+09     3.5949E+09    -7.8744E+08    -6.2101E+08
     2.1604E-02    -6.2154E+00    -8.5370E+01    -1.3453E+02     1.5945E+02     3.0121E+07     8.8947E+00     1.9983E-01     3.7191E+09     3.6202E+09    -5.9608E+08    -6.0904E+08
     2.1746E-02    -1.0840E+00    -8.6076E+01    -1.3538E+02     1.6043E+02     2.9189E+07     8.8373E+00     2.0080E-01     3.7062E+09     3.6351E+09    -4.0294E+08    -5.9946E+08
     2.1887E-02     4.0602E+00    -8.6507E+01    -1.3622E+02     1.6142E+02     2.8506E+07     8.7878E+00     2.0161E-01     3.6910E+09     3.6378E+09    -2.0575E+08    -5.8915E+08
     2.2028E-02     9.2013E+00    -8.6663E+01    -1.3704E+02     1.6241E+02     2.7839E+07     8.7247E+00     2.0250E-01     3.6755E+09     3.6298E+09    -1.5099E+07    -5.7726E+08
     2.2170E-02     1.4324E+01    -8.6550E+01    -1.3785E+02     1.6340E+02     2.7272E+07     8.6740E+00     2.0344E-01     3.6604E+09     3.6127E+09     1.7521E+08    -5.6204E+08
     2.2311E-02     1.9414E+01    -8.6169E+01    -1.3863E+02     1.6438E+02     2.6702E+07     8.6234E+00     2.0434E-01     3.6439E+09     3.5840E+09     3.6267E+08    -5.4879E+08
     2.2453E-02     2.4456E+01    -8.5527E+01    -1.3940E+02     1.6537E+02     2.6203E+07     8.5782E+00     2.0515E-01     3.6257E+09     3.5442E+09     5.4575E+08    -5.3536E+08
     2.2594E-02     2.9434E+01    -8.4627E+01    -1.4015E+02     1.6634E+02     2.5763E+07     8.5391E+00     2.0594E-01     3.6065E+09     3.4938E+09     7.2519E+08    -5.2412E+08
     2.2735E-02     3.4334E+01    -8.3475E+01    -1.4088E+02     1.6732E+02     2.5434E+07     8.5133E+00     2.0678E-01     3.5866E+09     3.4324E+09     9.0386E+08    -5.1527E+08
     2.2877E-02     3.9136E+01    -8.2073E+01    -1.4161E+02     1.6829E+02     2.5192E+07     8.4979E+00     2.0757E-01     3.5628E+09     3.3570E+09     1.0791E+09    -5.1025E+08
     2.3018E-02     4.3820E+01    -8.0426E+01    -1.4233E+02     1.6925E+02     2.5128E+07     8.5007E+00     2.0819E-01     3.5328E+09     3.2643E+09     1.2511E+09    -5.0975E+08
     2.3160E-02     4.8359E+01    -7.8534E+01    -1.4305E+02     1.7021E+02     2.5286E+07     8.5316E+00     2.0891E-01     3.4955E+09     3.1508E+09     1.4231E+09    -5.1533E+08
     2.3301E-02     5.2722E+01    -7.6399E+01    -1.4379E+02     1.7115E+02     2.5732E+07     8.5969E+00     2.0960E-01     3.4513E+09     3.0143E+09     1.5962E+09    -5.2720E+08
     2.3443E-02     5.6874E+01    -7.4022E+01    -1.4455E+02     1.7207E+02     2.6388E+07     8.6907E+00     2.1022E-01     3.3991E+09     2.8529E+09     1.7656E+09    -5.4521E+08
     2.3584E-02     6.0785E+01    -7.1413E+01    -1.4533E+02     1.7296E+02     2.7259E+07     8.8062E+00     2.1073E-01     3.3444E+09     2.6762E+09     1.9241E+09    -5.6601E+08
     2.3726E-02     6.4442E+01    -6.8585E+01    -1.4615E+02     1.7383E+02     2.8157E+07     8.8843E+00     2.1124E-01     3.2944E+09     2.4923E+09     2.0723E+09    -5.8911E+08
     2.3867E-02     6.7836E+01    -6.5555E+01    -1.4700E+02     1.7467E+02     2.8945E+07     8.9559E+00     2.1176E-01     3.2532E+09     2.3084E+09     2.2087E+09    -6.1343E+08
     2.4008E-02     7.0972E+01    -6.2339E+01    -1.4789E+02     1.7548E+02     2.9599E+07     9.0139E+00     2.1234E-01     3.2247E+09     2.1287E+09     2.3362E+09    -6.4012E+08
     2.4150E-02     7.3863E+01    -5.8956E+01    -1.4881E+02     1.7628E+02     2.9768E+07     9.0332E+00     2.1285E-01     3.2057E+09     1.9609E+09     2.4478E+09    -6.6290E+08
     2.4291E-02     7.6524E+01    -5.5421E+01    -1.4976E+02     1.7707E+02     2.9590E+07     9.0250E+00     2.1343E-01     3.1966E+09     1.8029E+09     2.5500E+09    -6.8225E+08
     2.4433E-02     7.8967E+01    -5.1749E+01    -1.5074E+02     1.7786E+02     2.9144E+07     8.9950E+00     2.1400E-01     3.1943E+09     1.6535E+09     2.6423E+09    -6.9844E+08
     2.4574E-02     8.1204E+01    -4.7952E+01    -1.5173E+02     1.7865E+02     2.8463E+07     8.9434E+00     2.1453E-01     3.1977E+09     1.5107E+09     2.7269E+09    -7.1174E+08
     2.4716E-02     8.3243E+01    -4.4040E+01    -1.5275E+02     1.7945E+02     2.7596E+07     8.8798E+00     2.1515E-01     3.2056E+09     1.3718E+09     2.8055E+09    -7.2314E+08
     2.4857E-02     8.5085E+01    -4.0021E+01    -1.5378E+02     1.8025E+02     2.6660E+07     8.8129E+00     2.1577E-01     3.2166E+09     1.2342E+09     2.8781E+09    -7.3442E+08
     2.4998E-02     8.6735E+01    -3.5903E+01    -1.5483E+02     1.8106E+02     2.5774E+07     8.7134E+00     2.1636E-01     3.2295E+09     1.0998E+09     2.9440E+09    -7.4393E+08
     2.5140E-02     8.8196E+01    -3.1697E+01    -1.5588E+02     1.8189E+02     2.4887E+07     8.6117E+00     2.1698E-01     3.2427E+09     9.6719E+08     3.0033E+09    -7.4828E+08
     2.5281E-02     8.9470E+01    -2.7412E+01    -1.5694E+02     1.8272E+02     2.4027E+07     8.5154E+00     2.1761E-01     3.2554E+09     8.3540E+08     3.0561E+09    -7.4842E+08
     2.5423E-02     9.0559E+01    -2.3057E+01    -1.5800E+02     1.8357E+02     2.3171E+07     8.4194E+00     2.1821E-01     3.2666E+09     7.0406E+08     3.1014E+09    -7.4618E+08
