           time        x coord        y coord        z coord         radius           dens           temp             ye            |v|             vx             vy             vz
            sec             km             km             km             km         g/cm^3             GK              -           cm/s           cm/s           cm/s           cm/s
     1.0503E-02     6.8321E+01     1.4906E+01    -6.9856E+01     9.8843E+01     5.2737E+08     1.4685E+01     7.5366E-02     5.1583E+09    -9.2457E+08     5.0579E+09    -4.1298E+08
     1.0644E-02     6.6677E+01     2.1975E+01    -7.0449E+01     9.9457E+01     5.0379E+08     1.4548E+01     7.8779E-02     5.1460E+09    -1.4003E+09     4.9342E+09    -4.1815E+08
     1.0786E-02     6.4367E+01     2.8839E+01    -7.1033E+01     1.0010E+02     4.7986E+08     1.4397E+01     8.1923E-02     5.1272E+09    -1.8577E+09     4.7608E+09    -4.1416E+08
     1.0927E-02     6.1425E+01     3.5424E+01    -7.1607E+01     1.0077E+02     4.6590E+08     1.4314E+01     8.5323E-02     5.1068E+09    -2.2999E+09     4.5422E+09    -3.9753E+08
     1.1069E-02     5.7875E+01     4.1660E+01    -7.2162E+01     1.0145E+02     4.4995E+08     1.4222E+01     8.8076E-02     5.0729E+09    -2.7146E+09     4.2678E+09    -3.8870E+08
     1.1210E-02     5.3754E+01     4.7475E+01    -7.2701E+01     1.0212E+02     4.4567E+08     1.4221E+01     9.1207E-02     5.0373E+09    -3.1083E+09     3.9461E+09    -3.7506E+08
     1.1352E-02     4.9101E+01     5.2800E+01    -7.3227E+01     1.0277E+02     4.3942E+08     1.4211E+01     9.3823E-02     4.9952E+09    -3.4659E+09     3.5781E+09    -3.6965E+08
     1.1493E-02     4.3965E+01     5.7582E+01    -7.3742E+01     1.0338E+02     4.3966E+08     1.4243E+01     9.6618E-02     4.9614E+09    -3.7923E+09     3.1790E+09    -3.5763E+08
     1.1634E-02     3.8399E+01     6.1781E+01    -7.4242E+01     1.0394E+02     4.3394E+08     1.4228E+01     9.9001E-02     4.9302E+09    -4.0722E+09     2.7574E+09    -3.4852E+08
     1.1776E-02     3.2463E+01     6.5376E+01    -7.4722E+01     1.0446E+02     4.3049E+08     1.4223E+01     1.0161E-01     4.9120E+09    -4.3150E+09     2.3239E+09    -3.2927E+08
     1.1917E-02     2.6216E+01     6.8350E+01    -7.5174E+01     1.0493E+02     4.1969E+08     1.4162E+01     1.0405E-01     4.8976E+09    -4.5107E+09     1.8822E+09    -3.1057E+08
     1.2059E-02     1.9720E+01     7.0699E+01    -7.5593E+01     1.0536E+02     4.1102E+08     1.4112E+01     1.0676E-01     4.8935E+09    -4.6689E+09     1.4380E+09    -2.8142E+08
     1.2200E-02     1.3030E+01     7.2417E+01    -7.5969E+01     1.0576E+02     3.9997E+08     1.4043E+01     1.0943E-01     4.8932E+09    -4.7852E+09     9.9117E+08    -2.4941E+08
     1.2342E-02     6.2090E+00     7.3502E+01    -7.6303E+01     1.0613E+02     3.8518E+08     1.3944E+01     1.1191E-01     4.8922E+09    -4.8570E+09     5.4375E+08    -2.1942E+08
     1.2483E-02    -6.8884E-01     7.3954E+01    -7.6589E+01     1.0647E+02     3.7421E+08     1.3877E+01     1.1465E-01     4.8954E+09    -4.8910E+09     9.4706E+07    -1.8614E+08
     1.2624E-02    -7.6046E+00     7.3770E+01    -7.6831E+01     1.0678E+02     3.6463E+08     1.3826E+01     1.1740E-01     4.8965E+09    -4.8812E+09    -3.5431E+08    -1.5689E+08
     1.2766E-02    -1.4473E+01     7.2953E+01    -7.7037E+01     1.0708E+02     3.5468E+08     1.3775E+01     1.1985E-01     4.8893E+09    -4.8214E+09    -8.0019E+08    -1.3597E+08
     1.2907E-02    -2.1221E+01     7.1507E+01    -7.7218E+01     1.0736E+02     3.5360E+08     1.3804E+01     1.2238E-01     4.8775E+09    -4.7146E+09    -1.2436E+09    -1.2285E+08
     1.3049E-02    -2.7780E+01     6.9436E+01    -7.7390E+01     1.0762E+02     3.5920E+08     1.3896E+01     1.2478E-01     4.8543E+09    -4.5516E+09    -1.6830E+09    -1.2216E+08
     1.3190E-02    -3.4073E+01     6.6755E+01    -7.7570E+01     1.0786E+02     3.7012E+08     1.4047E+01     1.2713E-01     4.8255E+09    -4.3398E+09    -2.1055E+09    -1.3429E+08
     1.3331E-02    -4.0027E+01     6.3486E+01    -7.7775E+01     1.0808E+02     3.8720E+08     1.4256E+01     1.2940E-01     4.7905E+09    -4.0779E+09    -2.5090E+09    -1.5748E+08
     1.3473E-02    -4.5584E+01     5.9667E+01    -7.8017E+01     1.0828E+02     4.0312E+08     1.4445E+01     1.3126E-01     4.7520E+09    -3.7738E+09    -2.8821E+09    -1.8391E+08
     1.3614E-02    -5.0699E+01     5.5349E+01    -7.8299E+01     1.0847E+02     4.2298E+08     1.4662E+01     1.3349E-01     4.7284E+09    -3.4567E+09    -3.2192E+09    -2.1345E+08
     1.3756E-02    -5.5358E+01     5.0580E+01    -7.8620E+01     1.0865E+02     4.3887E+08     1.4836E+01     1.3579E-01     4.7148E+09    -3.1294E+09    -3.5182E+09    -2.3994E+08
     1.3897E-02    -5.9546E+01     4.5414E+01    -7.8975E+01     1.0884E+02     4.4975E+08     1.4960E+01     1.3803E-01     4.7082E+09    -2.7931E+09    -3.7813E+09    -2.6043E+08
     1.4039E-02    -6.3251E+01     3.9904E+01    -7.9356E+01     1.0904E+02     4.5219E+08     1.5020E+01     1.4030E-01     4.7042E+09    -2.4485E+09    -4.0072E+09    -2.7752E+08
     1.4180E-02    -6.6468E+01     3.4095E+01    -7.9756E+01     1.0928E+02     4.5422E+08     1.5065E+01     1.4262E-01     4.7075E+09    -2.0999E+09    -4.2033E+09    -2.8866E+08
     1.4321E-02    -6.9185E+01     2.8033E+01    -8.0171E+01     1.0954E+02     4.4829E+08     1.5046E+01     1.4465E-01     4.7081E+09    -1.7412E+09    -4.3642E+09    -2.9747E+08
     1.4463E-02    -7.1390E+01     2.1764E+01    -8.0594E+01     1.0984E+02     4.4357E+08     1.5037E+01     1.4724E-01     4.7116E+09    -1.3756E+09    -4.4963E+09    -3.0059E+08
     1.4604E-02    -7.3071E+01     1.5331E+01    -8.1019E+01     1.1017E+02     4.3306E+08     1.4983E+01     1.4949E-01     4.7098E+09    -9.9930E+08    -4.5926E+09    -3.0384E+08
     1.4746E-02    -7.4212E+01     8.7864E+00    -8.1449E+01     1.1054E+02     4.2625E+08     1.4952E+01     1.5199E-01     4.7079E+09    -6.1337E+08    -4.6578E+09    -3.0448E+08
     1.4887E-02    -7.4801E+01     2.1754E+00    -8.1881E+01     1.1092E+02     4.2002E+08     1.4925E+01     1.5436E-01     4.7003E+09    -2.1753E+08    -4.6852E+09    -3.0743E+08
     1.5029E-02    -7.4826E+01    -4.4461E+00    -8.2321E+01     1.1133E+02     4.1136E+08     1.4883E+01     1.5662E-01     4.6880E+09     1.8435E+08    -4.6738E+09    -3.1547E+08
     1.5170E-02    -7.4276E+01    -1.1027E+01    -8.2775E+01     1.1176E+02     4.0714E+08     1.4881E+01     1.5918E-01     4.6759E+09     5.9239E+08    -4.6267E+09    -3.2579E+08
     1.5311E-02    -7.3152E+01    -1.7509E+01    -8.3244E+01     1.1219E+02     4.0151E+08     1.4862E+01     1.6124E-01     4.6565E+09     9.9702E+08    -4.5359E+09    -3.3855E+08
     1.5453E-02    -7.1462E+01    -2.3841E+01    -8.3730E+01     1.1263E+02     3.9932E+08     1.4861E+01     1.6320E-01     4.6404E+09     1.3926E+09    -4.4129E+09    -3.4728E+08
     1.5594E-02    -6.9223E+01    -2.9977E+01    -8.4226E+01     1.1307E+02     3.9208E+08     1.4821E+01     1.6509E-01     4.6258E+09     1.7707E+09    -4.2588E+09    -3.5345E+08
     1.5736E-02    -6.6465E+01    -3.5879E+01    -8.4725E+01     1.1350E+02     3.8653E+08     1.4786E+01     1.6701E-01     4.6176E+09     2.1281E+09    -4.0828E+09    -3.5150E+08
     1.5875E-02    -6.3258E+01    -4.1451E+01    -8.5213E+01     1.1394E+02     3.7619E+08     1.4707E+01     1.6873E-01     4.6104E+09     2.4569E+09    -3.8858E+09    -3.4642E+08
     1.6013E-02    -5.9665E+01    -4.6659E+01    -8.5682E+01     1.1436E+02     3.6807E+08     1.4638E+01     1.7043E-01     4.6070E+09     2.7580E+09    -3.6751E+09    -3.3341E+08
     1.6152E-02    -5.5642E+01    -5.1599E+01    -8.6134E+01     1.1479E+02     3.5663E+08     1.4540E+01     1.7199E-01     4.6013E+09     3.0359E+09    -3.4429E+09    -3.1908E+08
     1.6288E-02    -5.1331E+01    -5.6125E+01    -8.6556E+01     1.1522E+02     3.4810E+08     1.4469E+01     1.7377E-01     4.5988E+09     3.2884E+09    -3.2009E+09    -2.9928E+08
     1.6420E-02    -4.6855E+01    -6.0175E+01    -8.6936E+01     1.1565E+02     3.4061E+08     1.4403E+01     1.7529E-01     4.5920E+09     3.5073E+09    -2.9508E+09    -2.7862E+08
     1.6551E-02    -4.2137E+01    -6.3862E+01    -8.7289E+01     1.1607E+02     3.3241E+08     1.4332E+01     1.7665E-01     4.5804E+09     3.7029E+09    -2.6835E+09    -2.5932E+08
     1.6682E-02    -3.7152E+01    -6.7210E+01    -8.7616E+01     1.1651E+02     3.2719E+08     1.4296E+01     1.7827E-01     4.5690E+09     3.8770E+09    -2.4057E+09    -2.3819E+08
     1.6815E-02    -3.1895E+01    -7.0213E+01    -8.7919E+01     1.1695E+02     3.2371E+08     1.4277E+01     1.7976E-01     4.5518E+09     4.0270E+09    -2.1107E+09    -2.1794E+08
     1.6949E-02    -2.6427E+01    -7.2827E+01    -8.8199E+01     1.1739E+02     3.1996E+08     1.4258E+01     1.8107E-01     4.5290E+09     4.1512E+09    -1.7997E+09    -2.0045E+08
     1.7084E-02    -2.0738E+01    -7.5045E+01    -8.8459E+01     1.1784E+02     3.1878E+08     1.4274E+01     1.8277E-01     4.5074E+09     4.2538E+09    -1.4791E+09    -1.8346E+08
     1.7221E-02    -1.4838E+01    -7.6848E+01    -8.8699E+01     1.1829E+02     3.1898E+08     1.4300E+01     1.8420E-01     4.4808E+09     4.3289E+09    -1.1447E+09    -1.6777E+08
     1.7361E-02    -8.7440E+00    -7.8210E+01    -8.8925E+01     1.1875E+02     3.1925E+08     1.4335E+01     1.8593E-01     4.4553E+09     4.3796E+09    -8.0283E+08    -1.5493E+08
     1.7503E-02    -2.5334E+00    -7.9102E+01    -8.9137E+01     1.1920E+02     3.1784E+08     1.4355E+01     1.8760E-01     4.4270E+09     4.4007E+09    -4.5958E+08    -1.4526E+08
     1.7644E-02     3.6913E+00    -7.9513E+01    -8.9336E+01     1.1965E+02     3.1828E+08     1.4386E+01     1.8912E-01     4.4018E+09     4.3980E+09    -1.2175E+08    -1.3727E+08
     1.7785E-02     9.8961E+00    -7.9450E+01    -8.9527E+01     1.2011E+02     3.1790E+08     1.4411E+01     1.9081E-01     4.3798E+09     4.3727E+09     2.0912E+08    -1.3336E+08
     1.7927E-02     1.6049E+01    -7.8925E+01    -8.9715E+01     1.2056E+02     3.1742E+08     1.4431E+01     1.9229E-01     4.3580E+09     4.3234E+09     5.3109E+08    -1.3412E+08
     1.8068E-02     2.2115E+01    -7.7949E+01    -8.9909E+01     1.2103E+02     3.1736E+08     1.4458E+01     1.9384E-01     4.3352E+09     4.2494E+09     8.4693E+08    -1.4093E+08
     1.8210E-02     2.8054E+01    -7.6531E+01    -9.0118E+01     1.2151E+02     3.1722E+08     1.4488E+01     1.9526E-01     4.3057E+09     4.1442E+09     1.1577E+09    -1.5520E+08
     1.8351E-02     3.3821E+01    -7.4673E+01    -9.0351E+01     1.2200E+02     3.2226E+08     1.4575E+01     1.9663E-01     4.2697E+09     4.0051E+09     1.4692E+09    -1.7631E+08
     1.8493E-02     3.9364E+01    -7.2374E+01    -9.0620E+01     1.2247E+02     3.3088E+08     1.4704E+01     1.9794E-01     4.2257E+09     3.8266E+09     1.7809E+09    -2.0351E+08
     1.8634E-02     4.4629E+01    -6.9639E+01    -9.0928E+01     1.2292E+02     3.4183E+08     1.4856E+01     1.9903E-01     4.1785E+09     3.6138E+09     2.0848E+09    -2.3272E+08
     1.8776E-02     4.9575E+01    -6.6487E+01    -9.1277E+01     1.2333E+02     3.5001E+08     1.4976E+01     2.0002E-01     4.1370E+09     3.3798E+09     2.3716E+09    -2.5988E+08
     1.8917E-02     5.4187E+01    -6.2941E+01    -9.1660E+01     1.2369E+02     3.5640E+08     1.5061E+01     2.0101E-01     4.1115E+09     3.1414E+09     2.6377E+09    -2.7998E+08
     1.9058E-02     5.8460E+01    -5.9035E+01    -9.2067E+01     1.2401E+02     3.5556E+08     1.5072E+01     2.0205E-01     4.0982E+09     2.9002E+09     2.8805E+09    -2.9508E+08
     1.9200E-02     6.2395E+01    -5.4804E+01    -9.2490E+01     1.2430E+02     3.5251E+08     1.5048E+01     2.0305E-01     4.0984E+09     2.6640E+09     3.0998E+09    -3.0286E+08
     1.9341E-02     6.5994E+01    -5.0276E+01    -9.2921E+01     1.2457E+02     3.4527E+08     1.4980E+01     2.0421E-01     4.1081E+09     2.4264E+09     3.3007E+09    -3.0662E+08
     1.9483E-02     6.9255E+01    -4.5480E+01    -9.3357E+01     1.2482E+02     3.3424E+08     1.4867E+01     2.0524E-01     4.1204E+09     2.1861E+09     3.4791E+09    -3.0819E+08
     1.9624E-02     7.2176E+01    -4.0443E+01    -9.3791E+01     1.2507E+02     3.2320E+08     1.4746E+01     2.0632E-01     4.1390E+09     1.9435E+09     3.6415E+09    -3.0561E+08
     1.9765E-02     7.4749E+01    -3.5190E+01    -9.4222E+01     1.2531E+02     3.0998E+08     1.4598E+01     2.0744E-01     4.1571E+09     1.6945E+09     3.7840E+09    -3.0244E+08
     1.9907E-02     7.6968E+01    -2.9748E+01    -9.4645E+01     1.2557E+02     2.9830E+08     1.4460E+01     2.0864E-01     4.1774E+09     1.4421E+09     3.9093E+09    -2.9615E+08
     2.0048E-02     7.8824E+01    -2.4141E+01    -9.5059E+01     1.2583E+02     2.8534E+08     1.4305E+01     2.0980E-01     4.1954E+09     1.1816E+09     4.0151E+09    -2.9029E+08
     2.0190E-02     8.0310E+01    -1.8398E+01    -9.5464E+01     1.2610E+02     2.7453E+08     1.4169E+01     2.1104E-01     4.2138E+09     9.1733E+08     4.1031E+09    -2.8227E+08
     2.0331E-02     8.1416E+01    -1.2545E+01    -9.5858E+01     1.2639E+02     2.6424E+08     1.4038E+01     2.1230E-01     4.2302E+09     6.4708E+08     4.1714E+09    -2.7488E+08
     2.0473E-02     8.2138E+01    -6.6106E+00    -9.6243E+01     1.2670E+02     2.5387E+08     1.3910E+01     2.1351E-01     4.2424E+09     3.7189E+08     4.2174E+09    -2.6915E+08
     2.0614E-02     8.2466E+01    -6.2419E-01    -9.6620E+01     1.2703E+02     2.4535E+08     1.3816E+01     2.1481E-01     4.2536E+09     9.1594E+07     4.2443E+09    -2.6499E+08
     2.0755E-02     8.2394E+01     5.3845E+00    -9.6993E+01     1.2738E+02     2.3753E+08     1.3731E+01     2.1612E-01     4.2618E+09    -1.9296E+08     4.2492E+09    -2.6337E+08
     2.0897E-02     8.1920E+01     1.1382E+01    -9.7367E+01     1.2775E+02     2.2981E+08     1.3645E+01     2.1735E-01     4.2648E+09    -4.7949E+08     4.2294E+09    -2.6529E+08
     2.1038E-02     8.1038E+01     1.7336E+01    -9.7745E+01     1.2815E+02     2.2426E+08     1.3586E+01     2.1859E-01     4.2654E+09    -7.6765E+08     4.1870E+09    -2.7016E+08
     2.1180E-02     7.9751E+01     2.3213E+01    -9.8133E+01     1.2857E+02     2.1859E+08     1.3524E+01     2.1967E-01     4.2601E+09    -1.0522E+09     4.1186E+09    -2.7918E+08
     2.1321E-02     7.8063E+01     2.8976E+01    -9.8536E+01     1.2901E+02     2.1496E+08     1.3487E+01     2.2085E-01     4.2535E+09    -1.3340E+09     4.0284E+09    -2.9069E+08
     2.1463E-02     7.5981E+01     3.4596E+01    -9.8957E+01     1.2947E+02     2.1176E+08     1.3455E+01     2.2194E-01     4.2439E+09    -1.6082E+09     3.9155E+09    -3.0457E+08
     2.1604E-02     7.3521E+01     4.0041E+01    -9.9399E+01     1.2996E+02     2.0800E+08     1.3415E+01     2.2292E-01     4.2307E+09    -1.8700E+09     3.7815E+09    -3.1988E+08
     2.1746E-02     7.0697E+01     4.5284E+01    -9.9861E+01     1.3046E+02     2.0530E+08     1.3388E+01     2.2393E-01     4.2180E+09    -2.1218E+09     3.6302E+09    -3.3428E+08
     2.1887E-02     6.7528E+01     5.0300E+01    -1.0034E+02     1.3099E+02     2.0165E+08     1.3348E+01     2.2486E-01     4.2028E+09    -2.3576E+09     3.4618E+09    -3.4779E+08
     2.2028E-02     6.4034E+01     5.5069E+01    -1.0084E+02     1.3154E+02     1.9884E+08     1.3316E+01     2.2583E-01     4.1892E+09    -2.5808E+09     3.2804E+09    -3.5797E+08
     2.2170E-02     6.0238E+01     5.9572E+01    -1.0136E+02     1.3210E+02     1.9509E+08     1.3270E+01     2.2670E-01     4.1730E+09    -2.7858E+09     3.0853E+09    -3.6625E+08
     2.2311E-02     5.6161E+01     6.3792E+01    -1.0188E+02     1.3268E+02     1.9219E+08     1.3236E+01     2.2762E-01     4.1587E+09    -2.9768E+09     2.8802E+09    -3.7041E+08
     2.2453E-02     5.1828E+01     6.7713E+01    -1.0240E+02     1.3326E+02     1.8856E+08     1.3190E+01     2.2849E-01     4.1419E+09    -3.1492E+09     2.6644E+09    -3.7264E+08
     2.2594E-02     4.7261E+01     7.1325E+01    -1.0293E+02     1.3385E+02     1.8582E+08     1.3157E+01     2.2939E-01     4.1266E+09    -3.3065E+09     2.4410E+09    -3.7146E+08
     2.2735E-02     4.2486E+01     7.4613E+01    -1.0345E+02     1.3444E+02     1.8259E+08     1.3117E+01     2.3025E-01     4.1090E+09    -3.4449E+09     2.2092E+09    -3.6890E+08
     2.2877E-02     3.7525E+01     7.7570E+01    -1.0397E+02     1.3504E+02     1.8028E+08     1.3089E+01     2.3115E-01     4.0926E+09    -3.5679E+09     1.9715E+09    -3.6407E+08
     2.3018E-02     3.2405E+01     8.0186E+01    -1.0448E+02     1.3563E+02     1.7762E+08     1.3057E+01     2.3202E-01     4.0738E+09    -3.6720E+09     1.7273E+09    -3.5870E+08
     2.3160E-02     2.7147E+01     8.2453E+01    -1.0499E+02     1.3623E+02     1.7590E+08     1.3039E+01     2.3292E-01     4.0557E+09    -3.7603E+09     1.4781E+09    -3.5245E+08
     2.3301E-02     2.1779E+01     8.4364E+01    -1.0548E+02     1.3681E+02     1.7397E+08     1.3019E+01     2.3380E-01     4.0350E+09    -3.8292E+09     1.2238E+09    -3.4658E+08
     2.3443E-02     1.6324E+01     8.5913E+01    -1.0597E+02     1.3739E+02     1.7307E+08     1.3015E+01     2.3472E-01     4.0146E+09    -3.8819E+09     9.6533E+08    -3.4104E+08
     2.3584E-02     1.0810E+01     8.7093E+01    -1.0645E+02     1.3796E+02     1.7204E+08     1.3011E+01     2.3561E-01     3.9911E+09    -3.9143E+09     7.0245E+08    -3.3652E+08
     2.3726E-02     5.2617E+00     8.7898E+01    -1.0692E+02     1.3851E+02     1.7223E+08     1.3028E+01     2.3653E-01     3.9672E+09    -3.9291E+09     4.3598E+08    -3.3317E+08
     2.3867E-02    -2.9186E-01     8.8324E+01    -1.0739E+02     1.3905E+02     1.7229E+08     1.3043E+01     2.3736E-01     3.9404E+09    -3.9230E+09     1.6695E+08    -3.3098E+08
     2.4008E-02    -5.8244E+00     8.8369E+01    -1.0786E+02     1.3956E+02     1.7377E+08     1.3083E+01     2.3834E-01     3.9126E+09    -3.8972E+09    -1.0466E+08    -3.3034E+08
     2.4150E-02    -1.1304E+01     8.8029E+01    -1.0833E+02     1.4004E+02     1.7506E+08     1.3121E+01     2.3922E-01     3.8820E+09    -3.8496E+09    -3.7597E+08    -3.3071E+08
     2.4291E-02    -1.6703E+01     8.7305E+01    -1.0879E+02     1.4049E+02     1.7768E+08     1.3180E+01     2.4004E-01     3.8508E+09    -3.7816E+09    -6.4669E+08    -3.3216E+08
     2.4433E-02    -2.1991E+01     8.6202E+01    -1.0927E+02     1.4090E+02     1.7996E+08     1.3233E+01     2.4080E-01     3.8181E+09    -3.6920E+09    -9.1399E+08    -3.3413E+08
     2.4574E-02    -2.7141E+01     8.4725E+01    -1.0974E+02     1.4127E+02     1.8281E+08     1.3295E+01     2.4152E-01     3.7899E+09    -3.5878E+09    -1.1741E+09    -3.3510E+08
     2.4716E-02    -3.2129E+01     8.2884E+01    -1.1021E+02     1.4159E+02     1.8481E+08     1.3341E+01     2.4222E-01     3.7629E+09    -3.4657E+09    -1.4268E+09    -3.3586E+08
     2.4857E-02    -3.6938E+01     8.0693E+01    -1.1069E+02     1.4187E+02     1.8683E+08     1.3383E+01     2.4287E-01     3.7434E+09    -3.3337E+09    -1.6696E+09    -3.3512E+08
     2.4998E-02    -4.1555E+01     7.8168E+01    -1.1116E+02     1.4210E+02     1.8704E+08     1.3398E+01     2.4354E-01     3.7296E+09    -3.1925E+09    -1.8992E+09    -3.3271E+08
     2.5140E-02    -4.5968E+01     7.5327E+01    -1.1163E+02     1.4229E+02     1.8674E+08     1.3402E+01     2.4420E-01     3.7247E+09    -3.0472E+09    -2.1167E+09    -3.2795E+08
     2.5281E-02    -5.0172E+01     7.2187E+01    -1.1209E+02     1.4245E+02     1.8465E+08     1.3379E+01     2.4488E-01     3.7247E+09    -2.8950E+09    -2.3214E+09    -3.2137E+08
     2.5423E-02    -5.4157E+01     6.8766E+01    -1.1253E+02     1.4257E+02     1.8219E+08     1.3346E+01     2.4557E-01     3.7318E+09    -2.7398E+09    -2.5146E+09    -3.1222E+08
     2.5564E-02    -5.7918E+01     6.5080E+01    -1.1297E+02     1.4266E+02     1.7880E+08     1.3295E+01     2.4622E-01     3.7429E+09    -2.5785E+09    -2.6963E+09    -3.0118E+08
