           time        x coord        y coord        z coord         radius           dens           temp             ye            |v|             vx             vy             vz
            sec             km             km             km             km         g/cm^3             GK              -           cm/s           cm/s           cm/s           cm/s
     1.0503E-02     6.8024E+01     1.4883E+01     6.9946E+01     9.8697E+01     4.9640E+08     1.4737E+01     7.2901E-02     5.1863E+09    -1.1299E+09     5.0394E+09     4.7467E+08
     1.0644E-02     6.6088E+01     2.1927E+01     7.0616E+01     9.9172E+01     4.7493E+08     1.4568E+01     7.6407E-02     5.1917E+09    -1.6067E+09     4.9142E+09     4.7239E+08
     1.0786E-02     6.3487E+01     2.8757E+01     7.1277E+01     9.9690E+01     4.5391E+08     1.4403E+01     7.9610E-02     5.1894E+09    -2.0693E+09     4.7366E+09     4.6109E+08
     1.0927E-02     6.0245E+01     3.5302E+01     7.1916E+01     1.0024E+02     4.3405E+08     1.4245E+01     8.2614E-02     5.1820E+09    -2.5108E+09     4.5116E+09     4.4138E+08
     1.1069E-02     5.6398E+01     4.1498E+01     7.2521E+01     1.0081E+02     4.1630E+08     1.4103E+01     8.5484E-02     5.1711E+09    -2.9251E+09     4.2442E+09     4.1282E+08
     1.1210E-02     5.1987E+01     4.7289E+01     7.3083E+01     1.0139E+02     3.9829E+08     1.3960E+01     8.8352E-02     5.1572E+09    -3.3064E+09     3.9395E+09     3.8082E+08
     1.1352E-02     4.7062E+01     5.2627E+01     7.3597E+01     1.0198E+02     3.8191E+08     1.3828E+01     9.1156E-02     5.1423E+09    -3.6527E+09     3.6030E+09     3.4545E+08
     1.1493E-02     4.1675E+01     5.7467E+01     7.4061E+01     1.0259E+02     3.6616E+08     1.3700E+01     9.3787E-02     5.1246E+09    -3.9602E+09     3.2376E+09     3.1065E+08
     1.1634E-02     3.5878E+01     6.1771E+01     7.4475E+01     1.0320E+02     3.5367E+08     1.3605E+01     9.6422E-02     5.1054E+09    -4.2308E+09     2.8442E+09     2.7488E+08
     1.1776E-02     2.9728E+01     6.5499E+01     7.4839E+01     1.0380E+02     3.4428E+08     1.3542E+01     9.8922E-02     5.0810E+09    -4.4596E+09     2.4229E+09     2.4072E+08
     1.1917E-02     2.3284E+01     6.8612E+01     7.5156E+01     1.0439E+02     3.3953E+08     1.3530E+01     1.0152E-01     5.0520E+09    -4.6458E+09     1.9739E+09     2.0810E+08
     1.2059E-02     1.6609E+01     7.1070E+01     7.5429E+01     1.0496E+02     3.3981E+08     1.3573E+01     1.0414E-01     5.0182E+09    -4.7858E+09     1.4987E+09     1.7796E+08
     1.2200E-02     9.7719E+00     7.2840E+01     7.5662E+01     1.0548E+02     3.4463E+08     1.3666E+01     1.0671E-01     4.9790E+09    -4.8750E+09     1.0012E+09     1.5187E+08
     1.2342E-02     2.8461E+00     7.3896E+01     7.5861E+01     1.0594E+02     3.5297E+08     1.3800E+01     1.0930E-01     4.9368E+09    -4.9106E+09     4.9108E+08     1.3125E+08
     1.2483E-02    -4.0930E+00     7.4229E+01     7.6036E+01     1.0634E+02     3.6301E+08     1.3955E+01     1.1194E-01     4.8963E+09    -4.8948E+09    -1.8615E+07     1.1756E+08
     1.2624E-02    -1.0974E+01     7.3847E+01     7.6198E+01     1.0668E+02     3.7466E+08     1.4124E+01     1.1461E-01     4.8572E+09    -4.8283E+09    -5.1744E+08     1.1367E+08
     1.2766E-02    -1.7731E+01     7.2778E+01     7.6362E+01     1.0697E+02     3.8527E+08     1.4278E+01     1.1720E-01     4.8252E+09    -4.7205E+09    -9.9242E+08     1.2009E+08
     1.2907E-02    -2.4308E+01     7.1053E+01     7.6543E+01     1.0723E+02     3.9538E+08     1.4419E+01     1.1976E-01     4.7983E+09    -4.5743E+09    -1.4425E+09     1.3830E+08
     1.3049E-02    -3.0651E+01     6.8709E+01     7.6759E+01     1.0748E+02     4.0592E+08     1.4556E+01     1.2219E-01     4.7741E+09    -4.3901E+09    -1.8684E+09     1.6762E+08
     1.3190E-02    -3.6711E+01     6.5782E+01     7.7022E+01     1.0774E+02     4.1597E+08     1.4685E+01     1.2460E-01     4.7538E+09    -4.1732E+09    -2.2674E+09     2.0527E+08
     1.3331E-02    -4.2444E+01     6.2310E+01     7.7342E+01     1.0801E+02     4.2630E+08     1.4809E+01     1.2711E-01     4.7387E+09    -3.9288E+09    -2.6380E+09     2.4799E+08
     1.3473E-02    -4.7811E+01     5.8334E+01     7.7723E+01     1.0830E+02     4.3516E+08     1.4912E+01     1.2950E-01     4.7255E+09    -3.6553E+09    -2.9806E+09     2.9124E+08
     1.3614E-02    -5.2774E+01     5.3895E+01     7.8165E+01     1.0863E+02     4.4210E+08     1.4997E+01     1.3189E-01     4.7150E+09    -3.3584E+09    -3.2928E+09     3.3227E+08
     1.3756E-02    -5.7303E+01     4.9037E+01     7.8662E+01     1.0898E+02     4.4712E+08     1.5066E+01     1.3434E-01     4.7076E+09    -3.0416E+09    -3.5740E+09     3.6945E+08
     1.3897E-02    -6.1367E+01     4.3801E+01     7.9207E+01     1.0935E+02     4.5000E+08     1.5111E+01     1.3664E-01     4.7010E+09    -2.7047E+09    -3.8240E+09     4.0062E+08
     1.4039E-02    -6.4945E+01     3.8235E+01     7.9792E+01     1.0976E+02     4.5046E+08     1.5131E+01     1.3891E-01     4.6963E+09    -2.3528E+09    -4.0421E+09     4.2507E+08
     1.4180E-02    -6.8020E+01     3.2384E+01     8.0409E+01     1.1019E+02     4.4744E+08     1.5135E+01     1.4149E-01     4.6951E+09    -1.9936E+09    -4.2273E+09     4.4637E+08
     1.4321E-02    -7.0579E+01     2.6294E+01     8.1048E+01     1.1064E+02     4.4119E+08     1.5097E+01     1.4369E-01     4.6938E+09    -1.6253E+09    -4.3796E+09     4.5831E+08
     1.4463E-02    -7.2615E+01     2.0011E+01     8.1703E+01     1.1112E+02     4.3220E+08     1.5041E+01     1.4606E-01     4.6948E+09    -1.2541E+09    -4.5002E+09     4.6583E+08
     1.4604E-02    -7.4125E+01     1.3581E+01     8.2365E+01     1.1164E+02     4.2040E+08     1.4963E+01     1.4854E-01     4.6963E+09    -8.8070E+08    -4.5890E+09     4.6982E+08
     1.4746E-02    -7.5108E+01     7.0474E+00     8.3028E+01     1.1218E+02     4.0617E+08     1.4855E+01     1.5089E-01     4.6966E+09    -5.0737E+08    -4.6454E+09     4.6958E+08
     1.4887E-02    -7.5563E+01     4.5651E-01     8.3689E+01     1.1275E+02     3.9176E+08     1.4739E+01     1.5318E-01     4.6952E+09    -1.3667E+08    -4.6700E+09     4.6552E+08
     1.5029E-02    -7.5495E+01    -6.1482E+00     8.4345E+01     1.1336E+02     3.7597E+08     1.4611E+01     1.5558E-01     4.6940E+09     2.3266E+08    -4.6655E+09     4.6166E+08
     1.5170E-02    -7.4907E+01    -1.2723E+01     8.4995E+01     1.1400E+02     3.6062E+08     1.4479E+01     1.5776E-01     4.6872E+09     5.9573E+08    -4.6266E+09     4.5714E+08
     1.5311E-02    -7.3809E+01    -1.9222E+01     8.5638E+01     1.1468E+02     3.4679E+08     1.4359E+01     1.6000E-01     4.6781E+09     9.5342E+08    -4.5575E+09     4.5256E+08
     1.5453E-02    -7.2211E+01    -2.5598E+01     8.6276E+01     1.1538E+02     3.3456E+08     1.4248E+01     1.6204E-01     4.6628E+09     1.3052E+09    -4.4539E+09     4.4886E+08
     1.5594E-02    -7.0125E+01    -3.1803E+01     8.6908E+01     1.1611E+02     3.2476E+08     1.4163E+01     1.6400E-01     4.6396E+09     1.6464E+09    -4.3148E+09     4.4562E+08
     1.5736E-02    -6.7564E+01    -3.7787E+01     8.7536E+01     1.1686E+02     3.1842E+08     1.4113E+01     1.6576E-01     4.6077E+09     1.9751E+09    -4.1394E+09     4.4236E+08
     1.5875E-02    -6.4584E+01    -4.3433E+01     8.8152E+01     1.1759E+02     3.1427E+08     1.4089E+01     1.6745E-01     4.5703E+09     2.2869E+09    -3.9326E+09     4.3914E+08
     1.6013E-02    -6.1231E+01    -4.8689E+01     8.8753E+01     1.1831E+02     3.1297E+08     1.4099E+01     1.6901E-01     4.5278E+09     2.5798E+09    -3.6957E+09     4.3320E+08
     1.6152E-02    -5.7463E+01    -5.3637E+01     8.9348E+01     1.1900E+02     3.1337E+08     1.4127E+01     1.7043E-01     4.4818E+09     2.8511E+09    -3.4320E+09     4.2312E+08
     1.6288E-02    -5.3410E+01    -5.8126E+01     8.9915E+01     1.1965E+02     3.1402E+08     1.4161E+01     1.7187E-01     4.4384E+09     3.0939E+09    -3.1559E+09     4.0917E+08
     1.6420E-02    -4.9196E+01    -6.2095E+01     9.0441E+01     1.2023E+02     3.1502E+08     1.4197E+01     1.7318E-01     4.3990E+09     3.3060E+09    -2.8757E+09     3.9001E+08
     1.6551E-02    -4.4747E+01    -6.5671E+01     9.0936E+01     1.2077E+02     3.1526E+08     1.4218E+01     1.7426E-01     4.3629E+09     3.4906E+09    -2.5917E+09     3.6674E+08
     1.6682E-02    -4.0045E+01    -6.8892E+01     9.1403E+01     1.2126E+02     3.1390E+08     1.4224E+01     1.7555E-01     4.3361E+09     3.6562E+09    -2.3061E+09     3.4132E+08
     1.6815E-02    -3.5088E+01    -7.1768E+01     9.1839E+01     1.2172E+02     3.1073E+08     1.4207E+01     1.7686E-01     4.3150E+09     3.7994E+09    -2.0210E+09     3.1523E+08
     1.6949E-02    -2.9925E+01    -7.4281E+01     9.2244E+01     1.2216E+02     3.0618E+08     1.4172E+01     1.7825E-01     4.3002E+09     3.9222E+09    -1.7391E+09     2.8965E+08
     1.7084E-02    -2.4545E+01    -7.6443E+01     9.2618E+01     1.2257E+02     2.9948E+08     1.4109E+01     1.7963E-01     4.2926E+09     4.0287E+09    -1.4580E+09     2.6473E+08
     1.7221E-02    -1.8946E+01    -7.8253E+01     9.2966E+01     1.2298E+02     2.9122E+08     1.4026E+01     1.8109E-01     4.2894E+09     4.1175E+09    -1.1774E+09     2.4234E+08
     1.7361E-02    -1.3133E+01    -7.9702E+01     9.3290E+01     1.2340E+02     2.8181E+08     1.3927E+01     1.8260E-01     4.2910E+09     4.1906E+09    -8.9570E+08     2.2184E+08
     1.7503E-02    -7.1660E+00    -8.0770E+01     9.3592E+01     1.2383E+02     2.7180E+08     1.3827E+01     1.8411E-01     4.2946E+09     4.2455E+09    -6.1445E+08     2.0512E+08
     1.7644E-02    -1.1338E+00    -8.1442E+01     9.3873E+01     1.2428E+02     2.6156E+08     1.3724E+01     1.8572E-01     4.2995E+09     4.2820E+09    -3.3545E+08     1.9268E+08
     1.7785E-02     4.9360E+00    -8.1722E+01     9.4139E+01     1.2476E+02     2.5174E+08     1.3621E+01     1.8726E-01     4.3036E+09     4.2992E+09    -6.0260E+07     1.8460E+08
     1.7927E-02     1.1018E+01    -8.1612E+01     9.4397E+01     1.2527E+02     2.4224E+08     1.3523E+01     1.8890E-01     4.3082E+09     4.2990E+09     2.1470E+08     1.8115E+08
     1.8068E-02     1.7087E+01    -8.1116E+01     9.4654E+01     1.2582E+02     2.3347E+08     1.3430E+01     1.9054E-01     4.3108E+09     4.2791E+09     4.8786E+08     1.8305E+08
     1.8210E-02     2.3111E+01    -8.0236E+01     9.4918E+01     1.2642E+02     2.2568E+08     1.3345E+01     1.9194E-01     4.3087E+09     4.2374E+09     7.5735E+08     1.9063E+08
     1.8351E-02     2.9061E+01    -7.8976E+01     9.5197E+01     1.2706E+02     2.1951E+08     1.3282E+01     1.9344E-01     4.3012E+09     4.1725E+09     1.0239E+09     2.0470E+08
     1.8493E-02     3.4902E+01    -7.7339E+01     9.5500E+01     1.2775E+02     2.1519E+08     1.3241E+01     1.9492E-01     4.2877E+09     4.0825E+09     1.2909E+09     2.2574E+08
     1.8634E-02     4.0592E+01    -7.5325E+01     9.5840E+01     1.2848E+02     2.1376E+08     1.3240E+01     1.9623E-01     4.2609E+09     3.9575E+09     1.5581E+09     2.5570E+08
     1.8776E-02     4.6074E+01    -7.2930E+01     9.6228E+01     1.2923E+02     2.1707E+08     1.3306E+01     1.9736E-01     4.2149E+09     3.7864E+09     1.8280E+09     2.9524E+08
     1.8917E-02     5.1277E+01    -7.0151E+01     9.6677E+01     1.2999E+02     2.2547E+08     1.3444E+01     1.9847E-01     4.1507E+09     3.5627E+09     2.1023E+09     3.4056E+08
     1.9058E-02     5.6130E+01    -6.6990E+01     9.7191E+01     1.3071E+02     2.3774E+08     1.3628E+01     1.9923E-01     4.0742E+09     3.2952E+09     2.3650E+09     3.8448E+08
     1.9200E-02     6.0590E+01    -6.3469E+01     9.7760E+01     1.3136E+02     2.4963E+08     1.3803E+01     2.0004E-01     4.0064E+09     3.0116E+09     2.6090E+09     4.1807E+08
     1.9341E-02     6.4651E+01    -5.9624E+01     9.8368E+01     1.3195E+02     2.5800E+08     1.3925E+01     2.0078E-01     3.9554E+09     2.7343E+09     2.8242E+09     4.3897E+08
     1.9483E-02     6.8331E+01    -5.5493E+01     9.8996E+01     1.3247E+02     2.6141E+08     1.3988E+01     2.0158E-01     3.9226E+09     2.4717E+09     3.0127E+09     4.4884E+08
     1.9624E-02     7.1650E+01    -5.1112E+01     9.9632E+01     1.3294E+02     2.6062E+08     1.3989E+01     2.0239E-01     3.9061E+09     2.2246E+09     3.1792E+09     4.4959E+08
     1.9765E-02     7.4629E+01    -4.6512E+01     1.0027E+02     1.3336E+02     2.5639E+08     1.3941E+01     2.0327E-01     3.8997E+09     1.9892E+09     3.3247E+09     4.4454E+08
     1.9907E-02     7.7280E+01    -4.1716E+01     1.0089E+02     1.3376E+02     2.4976E+08     1.3868E+01     2.0423E-01     3.9016E+09     1.7612E+09     3.4541E+09     4.3543E+08
     2.0048E-02     7.9612E+01    -3.6747E+01     1.0150E+02     1.3413E+02     2.4171E+08     1.3775E+01     2.0520E-01     3.9092E+09     1.5374E+09     3.5691E+09     4.2354E+08
     2.0190E-02     8.1629E+01    -3.1626E+01     1.0209E+02     1.3448E+02     2.3273E+08     1.3668E+01     2.0626E-01     3.9199E+09     1.3145E+09     3.6701E+09     4.1032E+08
     2.0331E-02     8.3330E+01    -2.6372E+01     1.0266E+02     1.3482E+02     2.2364E+08     1.3556E+01     2.0732E-01     3.9330E+09     1.0909E+09     3.7579E+09     3.9603E+08
     2.0473E-02     8.4713E+01    -2.1004E+01     1.0321E+02     1.3516E+02     2.1455E+08     1.3441E+01     2.0840E-01     3.9468E+09     8.6497E+08     3.8319E+09     3.8156E+08
     2.0614E-02     8.5776E+01    -1.5541E+01     1.0373E+02     1.3550E+02     2.0594E+08     1.3327E+01     2.0947E-01     3.9597E+09     6.3678E+08     3.8909E+09     3.6725E+08
     2.0755E-02     8.6513E+01    -1.0005E+01     1.0425E+02     1.3584E+02     1.9772E+08     1.3217E+01     2.1058E-01     3.9726E+09     4.0439E+08     3.9361E+09     3.5330E+08
     2.0897E-02     8.6919E+01    -4.4160E+00     1.0473E+02     1.3618E+02     1.9024E+08     1.3112E+01     2.1169E-01     3.9833E+09     1.6925E+08     3.9652E+09     3.4018E+08
     2.1038E-02     8.6990E+01     1.2031E+00     1.0521E+02     1.3652E+02     1.8334E+08     1.3016E+01     2.1282E-01     3.9925E+09    -6.9522E+07     3.9784E+09     3.2804E+08
     2.1180E-02     8.6721E+01     6.8294E+00     1.0566E+02     1.3687E+02     1.7707E+08     1.2924E+01     2.1394E-01     3.9999E+09    -3.1138E+08     3.9752E+09     3.1721E+08
     2.1321E-02     8.6108E+01     1.2438E+01     1.0611E+02     1.3721E+02     1.7149E+08     1.2843E+01     2.1503E-01     4.0046E+09    -5.5513E+08     3.9539E+09     3.0829E+08
     2.1463E-02     8.5150E+01     1.8005E+01     1.0654E+02     1.3757E+02     1.6676E+08     1.2774E+01     2.1610E-01     4.0069E+09    -7.9950E+08     3.9147E+09     3.0138E+08
     2.1604E-02     8.3847E+01     2.3502E+01     1.0696E+02     1.3792E+02     1.6256E+08     1.2710E+01     2.1710E-01     4.0061E+09    -1.0428E+09     3.8566E+09     2.9680E+08
     2.1746E-02     8.2203E+01     2.8905E+01     1.0738E+02     1.3828E+02     1.5908E+08     1.2657E+01     2.1809E-01     4.0035E+09    -1.2830E+09     3.7809E+09     2.9401E+08
     2.1887E-02     8.0221E+01     3.4189E+01     1.0779E+02     1.3865E+02     1.5594E+08     1.2610E+01     2.1904E-01     3.9988E+09    -1.5187E+09     3.6876E+09     2.9347E+08
     2.2028E-02     7.7910E+01     3.9328E+01     1.0821E+02     1.3902E+02     1.5314E+08     1.2570E+01     2.1996E-01     3.9931E+09    -1.7480E+09     3.5781E+09     2.9451E+08
     2.2170E-02     7.5281E+01     4.4302E+01     1.0863E+02     1.3939E+02     1.5055E+08     1.2531E+01     2.2084E-01     3.9866E+09    -1.9690E+09     3.4537E+09     2.9682E+08
     2.2311E-02     7.2345E+01     4.9091E+01     1.0905E+02     1.3977E+02     1.4800E+08     1.2493E+01     2.2171E-01     3.9798E+09    -2.1806E+09     3.3156E+09     3.0039E+08
     2.2453E-02     6.9117E+01     5.3675E+01     1.0948E+02     1.4015E+02     1.4564E+08     1.2458E+01     2.2257E-01     3.9730E+09    -2.3823E+09     3.1650E+09     3.0435E+08
     2.2594E-02     6.5612E+01     5.8038E+01     1.0991E+02     1.4055E+02     1.4325E+08     1.2423E+01     2.2340E-01     3.9660E+09    -2.5723E+09     3.0027E+09     3.0896E+08
     2.2735E-02     6.1846E+01     6.2163E+01     1.1035E+02     1.4095E+02     1.4101E+08     1.2390E+01     2.2423E-01     3.9592E+09    -2.7512E+09     2.8297E+09     3.1369E+08
     2.2877E-02     5.7836E+01     6.6037E+01     1.1080E+02     1.4136E+02     1.3881E+08     1.2358E+01     2.2505E-01     3.9522E+09    -2.9176E+09     2.6468E+09     3.1852E+08
     2.3018E-02     5.3600E+01     6.9645E+01     1.1125E+02     1.4178E+02     1.3675E+08     1.2327E+01     2.2586E-01     3.9451E+09    -3.0713E+09     2.4548E+09     3.2333E+08
     2.3160E-02     4.9155E+01     7.2977E+01     1.1171E+02     1.4220E+02     1.3478E+08     1.2297E+01     2.2668E-01     3.9383E+09    -3.2122E+09     2.2549E+09     3.2770E+08
     2.3301E-02     4.4520E+01     7.6020E+01     1.1218E+02     1.4263E+02     1.3289E+08     1.2269E+01     2.2749E-01     3.9314E+09    -3.3395E+09     2.0478E+09     3.3178E+08
     2.3443E-02     3.9715E+01     7.8766E+01     1.1265E+02     1.4308E+02     1.3111E+08     1.2244E+01     2.2831E-01     3.9248E+09    -3.4533E+09     1.8348E+09     3.3533E+08
     2.3584E-02     3.4759E+01     8.1207E+01     1.1313E+02     1.4353E+02     1.2934E+08     1.2218E+01     2.2914E-01     3.9184E+09    -3.5531E+09     1.6169E+09     3.3836E+08
     2.3726E-02     2.9671E+01     8.3338E+01     1.1361E+02     1.4399E+02     1.2764E+08     1.2194E+01     2.2997E-01     3.9124E+09    -3.6392E+09     1.3953E+09     3.4077E+08
     2.3867E-02     2.4472E+01     8.5153E+01     1.1409E+02     1.4445E+02     1.2589E+08     1.2168E+01     2.3082E-01     3.9065E+09    -3.7111E+09     1.1708E+09     3.4277E+08
     2.4008E-02     1.9180E+01     8.6649E+01     1.1458E+02     1.4493E+02     1.2420E+08     1.2142E+01     2.3167E-01     3.9010E+09    -3.7692E+09     9.4433E+08     3.4439E+08
     2.4150E-02     1.3817E+01     8.7823E+01     1.1506E+02     1.4541E+02     1.2244E+08     1.2115E+01     2.3253E-01     3.8952E+09    -3.8131E+09     7.1659E+08     3.4587E+08
     2.4291E-02     8.4012E+00     8.8675E+01     1.1555E+02     1.4590E+02     1.2076E+08     1.2090E+01     2.3340E-01     3.8896E+09    -3.8431E+09     4.8813E+08     3.4731E+08
     2.4433E-02     2.9532E+00     8.9204E+01     1.1605E+02     1.4640E+02     1.1902E+08     1.2063E+01     2.3428E-01     3.8832E+09    -3.8588E+09     2.5936E+08     3.4893E+08
     2.4574E-02    -2.5072E+00     8.9409E+01     1.1654E+02     1.4691E+02     1.1742E+08     1.2039E+01     2.3511E-01     3.8766E+09    -3.8606E+09     3.0648E+07     3.5060E+08
     2.4716E-02    -7.9596E+00     8.9291E+01     1.1704E+02     1.4743E+02     1.1581E+08     1.2015E+01     2.3598E-01     3.8683E+09    -3.8471E+09    -1.9774E+08     3.5284E+08
     2.4857E-02    -1.3383E+01     8.8850E+01     1.1754E+02     1.4795E+02     1.1444E+08     1.1995E+01     2.3685E-01     3.8590E+09    -3.8190E+09    -4.2531E+08     3.5528E+08
     2.4998E-02    -1.8754E+01     8.8088E+01     1.1804E+02     1.4848E+02     1.1330E+08     1.1979E+01     2.3766E-01     3.8463E+09    -3.7736E+09    -6.5202E+08     3.5834E+08
     2.5140E-02    -2.4050E+01     8.7007E+01     1.1855E+02     1.4901E+02     1.1248E+08     1.1970E+01     2.3848E-01     3.8320E+09    -3.7129E+09    -8.7653E+08     3.6127E+08
     2.5281E-02    -2.9245E+01     8.5609E+01     1.1906E+02     1.4953E+02     1.1205E+08     1.1969E+01     2.3921E-01     3.8132E+09    -3.6331E+09    -1.0992E+09     3.6437E+08
     2.5423E-02    -3.4317E+01     8.3898E+01     1.1958E+02     1.5006E+02     1.1203E+08     1.1978E+01     2.3993E-01     3.7923E+09    -3.5368E+09    -1.3185E+09     3.6648E+08
