           time        x coord        y coord        z coord         radius           dens           temp             ye            |v|             vx             vy             vz
            sec             km             km             km             km         g/cm^3             GK              -           cm/s           cm/s           cm/s           cm/s
     1.0503E-02     5.7078E+01    -3.2785E+01    -7.7929E+01     1.0201E+02     1.0234E+08     1.1699E+01     7.9646E-02     4.6952E+09     2.0589E+09     4.1628E+09    -6.9025E+08
     1.0644E-02     5.9671E+01    -2.6745E+01    -7.8936E+01     1.0250E+02     9.5187E+07     1.1433E+01     8.1931E-02     4.7224E+09     1.6199E+09     4.3762E+09    -7.2533E+08
     1.0786E-02     6.1635E+01    -2.0439E+01    -7.9999E+01     1.0304E+02     8.5940E+07     1.1081E+01     8.4246E-02     4.7526E+09     1.1707E+09     4.5416E+09    -7.6842E+08
     1.0927E-02     6.2963E+01    -1.3935E+01    -8.1122E+01     1.0363E+02     7.5115E+07     1.0721E+01     8.6792E-02     4.7767E+09     7.0647E+08     4.6526E+09    -8.1928E+08
     1.1069E-02     6.3640E+01    -7.2899E+00    -8.2290E+01     1.0428E+02     6.7487E+07     1.0389E+01     8.9107E-02     4.8124E+09     2.4535E+08     4.7323E+09    -8.3930E+08
     1.1210E-02     6.3662E+01    -5.6740E-01    -8.3473E+01     1.0498E+02     6.0761E+07     1.0064E+01     9.1737E-02     4.8426E+09    -2.1644E+08     4.7656E+09    -8.3269E+08
     1.1352E-02     6.3029E+01     6.1681E+00    -8.4638E+01     1.0571E+02     5.4979E+07     9.8069E+00     9.4397E-02     4.8697E+09    -6.7899E+08     4.7535E+09    -8.1092E+08
     1.1493E-02     6.1744E+01     1.2853E+01    -8.5768E+01     1.0646E+02     5.0531E+07     9.5969E+00     9.6945E-02     4.8920E+09    -1.1340E+09     4.6945E+09    -7.7929E+08
     1.1634E-02     5.9830E+01     1.9423E+01    -8.6845E+01     1.0723E+02     4.6873E+07     9.3587E+00     9.9451E-02     4.9079E+09    -1.5697E+09     4.5916E+09    -7.3584E+08
     1.1776E-02     5.7319E+01     2.5818E+01    -8.7851E+01     1.0803E+02     4.3905E+07     9.1756E+00     1.0188E-01     4.9159E+09    -1.9795E+09     4.4478E+09    -6.8190E+08
     1.1917E-02     5.4248E+01     3.1983E+01    -8.8776E+01     1.0884E+02     4.1497E+07     9.0376E+00     1.0434E-01     4.9165E+09    -2.3630E+09     4.2661E+09    -6.2315E+08
     1.2059E-02     5.0651E+01     3.7866E+01    -8.9618E+01     1.0969E+02     3.9625E+07     8.9337E+00     1.0672E-01     4.9091E+09    -2.7198E+09     4.0476E+09    -5.6446E+08
     1.2200E-02     4.6568E+01     4.3413E+01    -9.0377E+01     1.1055E+02     3.8283E+07     8.8660E+00     1.0900E-01     4.8927E+09    -3.0496E+09     3.7920E+09    -5.0900E+08
     1.2342E-02     4.2037E+01     4.8573E+01    -9.1057E+01     1.1144E+02     3.7520E+07     8.8323E+00     1.1121E-01     4.8647E+09    -3.3520E+09     3.4956E+09    -4.5896E+08
     1.2483E-02     3.7098E+01     5.3282E+01    -9.1669E+01     1.1233E+02     3.8003E+07     8.8720E+00     1.1333E-01     4.8245E+09    -3.6287E+09     3.1530E+09    -4.0879E+08
     1.2624E-02     3.1790E+01     5.7463E+01    -9.2220E+01     1.1321E+02     3.9152E+07     8.9599E+00     1.1534E-01     4.7634E+09    -3.8725E+09     2.7488E+09    -3.7121E+08
     1.2766E-02     2.6157E+01     6.1029E+01    -9.2718E+01     1.1404E+02     4.1711E+07     9.1426E+00     1.1732E-01     4.6940E+09    -4.0870E+09     2.2848E+09    -3.3239E+08
     1.2907E-02     2.0252E+01     6.3903E+01    -9.3162E+01     1.1477E+02     4.4476E+07     9.3523E+00     1.1916E-01     4.6209E+09    -4.2551E+09     1.7776E+09    -2.9581E+08
     1.3049E-02     1.4140E+01     6.6053E+01    -9.3547E+01     1.1539E+02     4.7231E+07     9.5704E+00     1.2107E-01     4.5669E+09    -4.3814E+09     1.2646E+09    -2.4682E+08
     1.3190E-02     7.8805E+00     6.7486E+01    -9.3857E+01     1.1587E+02     4.9141E+07     9.7002E+00     1.2301E-01     4.5332E+09    -4.4639E+09     7.6603E+08    -1.9102E+08
     1.3331E-02     1.5335E+00     6.8229E+01    -9.4089E+01     1.1623E+02     4.9337E+07     9.7262E+00     1.2501E-01     4.5172E+09    -4.5059E+09     2.8806E+08    -1.3776E+08
     1.3473E-02    -4.8511E+00     6.8312E+01    -9.4243E+01     1.1650E+02     4.8830E+07     9.7173E+00     1.2714E-01     4.5211E+09    -4.5173E+09    -1.6634E+08    -8.1270E+07
     1.3614E-02    -1.1229E+01     6.7768E+01    -9.4320E+01     1.1668E+02     4.7658E+07     9.6756E+00     1.2922E-01     4.5364E+09    -4.4966E+09    -5.9910E+08    -2.8996E+07
     1.3756E-02    -1.7554E+01     6.6625E+01    -9.4329E+01     1.1681E+02     4.6258E+07     9.6015E+00     1.3122E-01     4.5563E+09    -4.4420E+09    -1.0139E+09     1.6346E+07
     1.3897E-02    -2.3776E+01     6.4907E+01    -9.4278E+01     1.1690E+02     4.5008E+07     9.5193E+00     1.3319E-01     4.5754E+09    -4.3510E+09    -1.4140E+09     5.5350E+07
     1.4039E-02    -2.9843E+01     6.2634E+01    -9.4177E+01     1.1697E+02     4.4212E+07     9.4722E+00     1.3508E-01     4.5881E+09    -4.2202E+09    -1.7982E+09     8.5104E+07
     1.4180E-02    -3.5695E+01     5.9829E+01    -9.4046E+01     1.1704E+02     4.4144E+07     9.4832E+00     1.3693E-01     4.5901E+09    -4.0449E+09    -2.1676E+09     9.6199E+07
     1.4321E-02    -4.1264E+01     5.6513E+01    -9.3922E+01     1.1712E+02     4.5854E+07     9.6367E+00     1.3886E-01     4.5778E+09    -3.8228E+09    -2.5173E+09     7.3669E+07
     1.4463E-02    -4.6474E+01     5.2717E+01    -9.3864E+01     1.1726E+02     4.9797E+07     9.8421E+00     1.4059E-01     4.5384E+09    -3.5345E+09    -2.8468E+09    -4.2301E+06
     1.4604E-02    -5.1232E+01     4.8473E+01    -9.3968E+01     1.1749E+02     5.6557E+07     1.0203E+01     1.4243E-01     4.4813E+09    -3.1858E+09    -3.1481E+09    -1.4924E+08
     1.4746E-02    -5.5464E+01     4.3834E+01    -9.4281E+01     1.1784E+02     6.3916E+07     1.0608E+01     1.4408E-01     4.4193E+09    -2.7957E+09    -3.4095E+09    -2.9972E+08
     1.4887E-02    -5.9145E+01     3.8853E+01    -9.4799E+01     1.1830E+02     7.1405E+07     1.0877E+01     1.4616E-01     4.3776E+09    -2.4077E+09    -3.6310E+09    -4.2695E+08
     1.5029E-02    -6.2268E+01     3.3583E+01    -9.5468E+01     1.1883E+02     7.5695E+07     1.1031E+01     1.4794E-01     4.3468E+09    -2.0099E+09    -3.8194E+09    -5.1655E+08
     1.5170E-02    -6.4834E+01     2.8066E+01    -9.6241E+01     1.1939E+02     7.6921E+07     1.1076E+01     1.4966E-01     4.3310E+09    -1.6207E+09    -3.9757E+09    -5.6989E+08
     1.5311E-02    -6.6857E+01     2.2347E+01    -9.7071E+01     1.1997E+02     7.5584E+07     1.1035E+01     1.5154E-01     4.3270E+09    -1.2418E+09    -4.1016E+09    -5.9794E+08
     1.5453E-02    -6.8348E+01     1.6470E+01    -9.7926E+01     1.2055E+02     7.2996E+07     1.0953E+01     1.5365E-01     4.3360E+09    -8.6855E+08    -4.2044E+09    -6.0780E+08
     1.5594E-02    -6.9317E+01     1.0474E+01    -9.8784E+01     1.2113E+02     6.8885E+07     1.0818E+01     1.5563E-01     4.3461E+09    -5.0155E+08    -4.2744E+09    -6.0510E+08
     1.5736E-02    -6.9771E+01     4.3981E+00    -9.9637E+01     1.2172E+02     6.4161E+07     1.0664E+01     1.5752E-01     4.3592E+09    -1.3858E+08    -4.3157E+09    -5.9854E+08
     1.5875E-02    -6.9709E+01    -1.6485E+00    -1.0047E+02     1.2230E+02     5.9647E+07     1.0479E+01     1.5954E-01     4.3778E+09     2.2564E+08    -4.3318E+09    -5.9202E+08
     1.6013E-02    -6.9157E+01    -7.6078E+00    -1.0128E+02     1.2287E+02     5.5564E+07     1.0276E+01     1.6156E-01     4.3937E+09     5.7416E+08    -4.3172E+09    -5.7968E+08
     1.6152E-02    -6.8127E+01    -1.3569E+01    -1.0206E+02     1.2346E+02     5.2314E+07     1.0117E+01     1.6340E-01     4.4029E+09     9.1285E+08    -4.2708E+09    -5.5927E+08
     1.6288E-02    -6.6662E+01    -1.9338E+01    -1.0281E+02     1.2405E+02     4.9985E+07     1.0011E+01     1.6522E-01     4.4060E+09     1.2383E+09    -4.1937E+09    -5.4001E+08
     1.6420E-02    -6.4829E+01    -2.4791E+01    -1.0351E+02     1.2463E+02     4.8249E+07     9.9339E+00     1.6680E-01     4.3983E+09     1.5465E+09    -4.0838E+09    -5.2527E+08
     1.6551E-02    -6.2609E+01    -3.0047E+01    -1.0419E+02     1.2522E+02     4.7111E+07     9.8917E+00     1.6837E-01     4.3842E+09     1.8415E+09    -3.9456E+09    -5.1228E+08
     1.6682E-02    -5.9990E+01    -3.5123E+01    -1.0486E+02     1.2581E+02     4.7210E+07     9.9100E+00     1.6995E-01     4.3628E+09     2.1331E+09    -3.7718E+09    -5.0797E+08
     1.6815E-02    -5.6968E+01    -4.0003E+01    -1.0553E+02     1.2642E+02     4.7411E+07     9.9342E+00     1.7139E-01     4.3352E+09     2.4085E+09    -3.5692E+09    -5.0398E+08
     1.6949E-02    -5.3569E+01    -4.4623E+01    -1.0621E+02     1.2705E+02     4.7796E+07     9.9664E+00     1.7273E-01     4.3064E+09     2.6684E+09    -3.3425E+09    -5.0195E+08
     1.7084E-02    -4.9792E+01    -4.8983E+01    -1.0689E+02     1.2768E+02     4.8337E+07     1.0006E+01     1.7419E-01     4.2829E+09     2.9105E+09    -3.1015E+09    -5.0262E+08
     1.7221E-02    -4.5641E+01    -5.3074E+01    -1.0757E+02     1.2834E+02     4.8256E+07     1.0017E+01     1.7568E-01     4.2632E+09     3.1292E+09    -2.8519E+09    -4.9960E+08
     1.7361E-02    -4.1121E+01    -5.6880E+01    -1.0827E+02     1.2903E+02     4.7844E+07     1.0004E+01     1.7699E-01     4.2469E+09     3.3291E+09    -2.5901E+09    -4.9471E+08
     1.7503E-02    -3.6285E+01    -6.0358E+01    -1.0897E+02     1.2974E+02     4.7220E+07     9.9837E+00     1.7856E-01     4.2370E+09     3.5080E+09    -2.3258E+09    -4.8667E+08
     1.7644E-02    -3.1216E+01    -6.3460E+01    -1.0964E+02     1.3047E+02     4.6250E+07     9.9432E+00     1.7994E-01     4.2266E+09     3.6611E+09    -2.0576E+09    -4.7584E+08
     1.7785E-02    -2.5944E+01    -6.6179E+01    -1.1031E+02     1.3123E+02     4.5038E+07     9.8891E+00     1.8134E-01     4.2160E+09     3.7905E+09    -1.7874E+09    -4.6098E+08
     1.7927E-02    -2.0502E+01    -6.8508E+01    -1.1095E+02     1.3200E+02     4.4034E+07     9.8468E+00     1.8280E-01     4.2057E+09     3.9012E+09    -1.5070E+09    -4.4483E+08
     1.8068E-02    -1.4925E+01    -7.0441E+01    -1.1156E+02     1.3278E+02     4.2998E+07     9.8042E+00     1.8418E-01     4.1892E+09     3.9844E+09    -1.2223E+09    -4.2369E+08
     1.8210E-02    -9.2444E+00    -7.1960E+01    -1.1215E+02     1.3357E+02     4.2004E+07     9.7667E+00     1.8549E-01     4.1660E+09     4.0420E+09    -9.2526E+08    -4.0133E+08
     1.8351E-02    -3.5009E+00    -7.3057E+01    -1.1269E+02     1.3434E+02     4.1864E+07     9.7722E+00     1.8708E-01     4.1400E+09     4.0763E+09    -6.2217E+08    -3.6862E+08
     1.8493E-02     2.2668E+00    -7.3717E+01    -1.1319E+02     1.3509E+02     4.1612E+07     9.7721E+00     1.8827E-01     4.1004E+09     4.0750E+09    -3.1161E+08    -3.3250E+08
     1.8634E-02     8.0149E+00    -7.3936E+01    -1.1363E+02     1.3580E+02     4.2178E+07     9.8133E+00     1.8963E-01     4.0604E+09     4.0499E+09     1.8524E+06    -2.9208E+08
     1.8776E-02     1.3711E+01    -7.3716E+01    -1.1401E+02     1.3646E+02     4.2258E+07     9.8322E+00     1.9089E-01     4.0202E+09     4.0008E+09     3.0445E+08    -2.4995E+08
     1.8917E-02     1.9327E+01    -7.3075E+01    -1.1434E+02     1.3707E+02     4.2642E+07     9.8650E+00     1.9228E-01     3.9901E+09     3.9388E+09     5.9959E+08    -2.1602E+08
     1.9058E-02     2.4846E+01    -7.2030E+01    -1.1463E+02     1.3764E+02     4.2634E+07     9.8756E+00     1.9351E-01     3.9663E+09     3.8635E+09     8.7722E+08    -1.8820E+08
     1.9200E-02     3.0249E+01    -7.0603E+01    -1.1488E+02     1.3819E+02     4.2423E+07     9.8735E+00     1.9460E-01     3.9470E+09     3.7750E+09     1.1402E+09    -1.7012E+08
     1.9341E-02     3.5515E+01    -6.8811E+01    -1.1511E+02     1.3873E+02     4.1970E+07     9.8596E+00     1.9562E-01     3.9273E+09     3.6692E+09     1.3912E+09    -1.5889E+08
     1.9483E-02     4.0617E+01    -6.6666E+01    -1.1533E+02     1.3927E+02     4.2181E+07     9.8802E+00     1.9676E-01     3.9058E+09     3.5404E+09     1.6413E+09    -1.6259E+08
     1.9624E-02     4.5513E+01    -6.4168E+01    -1.1558E+02     1.3981E+02     4.2958E+07     9.9318E+00     1.9778E-01     3.8733E+09     3.3760E+09     1.8901E+09    -1.8020E+08
     1.9765E-02     5.0144E+01    -6.1323E+01    -1.1585E+02     1.4034E+02     4.4640E+07     1.0037E+01     1.9871E-01     3.8232E+09     3.1647E+09     2.1345E+09    -2.1338E+08
     1.9907E-02     5.4442E+01    -5.8137E+01    -1.1619E+02     1.4087E+02     4.7047E+07     1.0189E+01     1.9948E-01     3.7599E+09     2.9064E+09     2.3710E+09    -2.6058E+08
     2.0048E-02     5.8353E+01    -5.4625E+01    -1.1659E+02     1.4136E+02     4.9966E+07     1.0376E+01     2.0024E-01     3.6998E+09     2.6214E+09     2.5917E+09    -3.1607E+08
     2.0190E-02     6.1857E+01    -5.0817E+01    -1.1708E+02     1.4183E+02     5.2216E+07     1.0527E+01     2.0094E-01     3.6542E+09     2.3340E+09     2.7871E+09    -3.7069E+08
     2.0331E-02     6.4963E+01    -4.6749E+01    -1.1763E+02     1.4228E+02     5.3842E+07     1.0618E+01     2.0181E-01     3.6313E+09     2.0624E+09     2.9599E+09    -4.1421E+08
     2.0473E-02     6.7695E+01    -4.2453E+01    -1.1825E+02     1.4272E+02     5.4054E+07     1.0630E+01     2.0262E-01     3.6258E+09     1.8028E+09     3.1126E+09    -4.5653E+08
     2.0614E-02     7.0073E+01    -3.7953E+01    -1.1892E+02     1.4315E+02     5.3549E+07     1.0613E+01     2.0358E-01     3.6368E+09     1.5618E+09     3.2476E+09    -4.8955E+08
     2.0755E-02     7.2112E+01    -3.3271E+01    -1.1964E+02     1.4360E+02     5.1838E+07     1.0529E+01     2.0453E-01     3.6588E+09     1.3258E+09     3.3702E+09    -5.2023E+08
     2.0897E-02     7.3827E+01    -2.8428E+01    -1.2039E+02     1.4406E+02     4.9637E+07     1.0396E+01     2.0549E-01     3.6872E+09     1.1002E+09     3.4768E+09    -5.4460E+08
     2.1038E-02     7.5227E+01    -2.3443E+01    -1.2117E+02     1.4454E+02     4.7144E+07     1.0249E+01     2.0649E-01     3.7189E+09     8.7908E+08     3.5700E+09    -5.5895E+08
     2.1180E-02     7.6314E+01    -1.8334E+01    -1.2197E+02     1.4504E+02     4.4535E+07     1.0099E+01     2.0760E-01     3.7539E+09     6.5953E+08     3.6520E+09    -5.6569E+08
     2.1321E-02     7.7092E+01    -1.3122E+01    -1.2277E+02     1.4556E+02     4.1736E+07     9.9446E+00     2.0866E-01     3.7880E+09     4.3902E+08     3.7192E+09    -5.6910E+08
     2.1463E-02     7.7558E+01    -7.8244E+00    -1.2358E+02     1.4611E+02     3.8829E+07     9.7869E+00     2.0971E-01     3.8207E+09     2.1832E+08     3.7715E+09    -5.7056E+08
     2.1604E-02     7.7703E+01    -2.4589E+00    -1.2439E+02     1.4668E+02     3.6010E+07     9.6286E+00     2.1081E-01     3.8572E+09    -1.3447E+07     3.8136E+09    -5.7806E+08
     2.1746E-02     7.7523E+01     2.9542E+00    -1.2520E+02     1.4729E+02     3.3690E+07     9.4233E+00     2.1191E-01     3.8886E+09    -2.4061E+08     3.8380E+09    -5.7694E+08
     2.1887E-02     7.7024E+01     8.3904E+00    -1.2601E+02     1.4793E+02     3.1650E+07     9.2529E+00     2.1300E-01     3.9146E+09    -4.6452E+08     3.8455E+09    -5.6566E+08
     2.2028E-02     7.6209E+01     1.3826E+01    -1.2680E+02     1.4859E+02     2.9796E+07     9.1021E+00     2.1413E-01     3.9380E+09    -6.8871E+08     3.8379E+09    -5.5096E+08
     2.2170E-02     7.5079E+01     1.9237E+01    -1.2757E+02     1.4927E+02     2.8038E+07     8.9640E+00     2.1516E-01     3.9556E+09    -9.1032E+08     3.8120E+09    -5.3589E+08
     2.2311E-02     7.3634E+01     2.4599E+01    -1.2832E+02     1.4998E+02     2.6427E+07     8.8442E+00     2.1615E-01     3.9695E+09    -1.1329E+09     3.7679E+09    -5.2532E+08
     2.2453E-02     7.1876E+01     2.9886E+01    -1.2906E+02     1.5071E+02     2.5227E+07     8.7261E+00     2.1711E-01     3.9781E+09    -1.3523E+09     3.7056E+09    -5.1534E+08
     2.2594E-02     6.9814E+01     3.5073E+01    -1.2977E+02     1.5147E+02     2.4353E+07     8.6295E+00     2.1810E-01     3.9804E+09    -1.5634E+09     3.6263E+09    -4.9847E+08
     2.2735E-02     6.7457E+01     4.0134E+01    -1.3047E+02     1.5226E+02     2.3604E+07     8.5462E+00     2.1899E-01     3.9759E+09    -1.7681E+09     3.5280E+09    -4.8519E+08
     2.2877E-02     6.4816E+01     4.5044E+01    -1.3115E+02     1.5307E+02     2.3022E+07     8.4850E+00     2.1986E-01     3.9657E+09    -1.9660E+09     3.4112E+09    -4.7464E+08
     2.3018E-02     6.1898E+01     4.9774E+01    -1.3181E+02     1.5389E+02     2.2631E+07     8.4481E+00     2.2075E-01     3.9506E+09    -2.1586E+09     3.2754E+09    -4.6813E+08
     2.3160E-02     5.8716E+01     5.4299E+01    -1.3247E+02     1.5474E+02     2.2359E+07     8.4257E+00     2.2156E-01     3.9287E+09    -2.3406E+09     3.1205E+09    -4.6773E+08
     2.3301E-02     5.5282E+01     5.8592E+01    -1.3314E+02     1.5561E+02     2.2225E+07     8.4199E+00     2.2234E-01     3.9010E+09    -2.5124E+09     2.9465E+09    -4.7327E+08
     2.3443E-02     5.1612E+01     6.2625E+01    -1.3381E+02     1.5650E+02     2.2252E+07     8.4335E+00     2.2315E-01     3.8694E+09    -2.6746E+09     2.7539E+09    -4.8436E+08
     2.3584E-02     4.7725E+01     6.6374E+01    -1.3451E+02     1.5740E+02     2.2355E+07     8.4565E+00     2.2390E-01     3.8325E+09    -2.8217E+09     2.5447E+09    -5.0114E+08
     2.3726E-02     4.3638E+01     6.9816E+01    -1.3523E+02     1.5832E+02     2.2532E+07     8.4891E+00     2.2464E-01     3.7925E+09    -2.9536E+09     2.3210E+09    -5.2194E+08
     2.3867E-02     3.9376E+01     7.2933E+01    -1.3599E+02     1.5925E+02     2.2788E+07     8.5319E+00     2.2541E-01     3.7518E+09    -3.0709E+09     2.0856E+09    -5.4393E+08
     2.4008E-02     3.4962E+01     7.5711E+01    -1.3677E+02     1.6019E+02     2.3028E+07     8.5734E+00     2.2614E-01     3.7097E+09    -3.1698E+09     1.8421E+09    -5.6662E+08
     2.4150E-02     3.0420E+01     7.8141E+01    -1.3759E+02     1.6113E+02     2.3249E+07     8.6131E+00     2.2687E-01     3.6682E+09    -3.2510E+09     1.5942E+09    -5.8724E+08
     2.4291E-02     2.5775E+01     8.0219E+01    -1.3843E+02     1.6206E+02     2.3433E+07     8.6484E+00     2.2759E-01     3.6280E+09    -3.3151E+09     1.3445E+09    -6.0386E+08
     2.4433E-02     2.1051E+01     8.1945E+01    -1.3929E+02     1.6298E+02     2.3574E+07     8.6784E+00     2.2833E-01     3.5897E+09    -3.3626E+09     1.0956E+09    -6.1535E+08
     2.4574E-02     1.6271E+01     8.3321E+01    -1.4017E+02     1.6387E+02     2.3677E+07     8.7027E+00     2.2900E-01     3.5521E+09    -3.3930E+09     8.4883E+08    -6.2053E+08
     2.4716E-02     1.1459E+01     8.4350E+01    -1.4104E+02     1.6474E+02     2.3739E+07     8.7222E+00     2.2974E-01     3.5168E+09    -3.4083E+09     6.0612E+08    -6.1967E+08
     2.4857E-02     6.6352E+00     8.5040E+01    -1.4191E+02     1.6558E+02     2.3817E+07     8.7444E+00     2.3053E-01     3.4847E+09    -3.4107E+09     3.7046E+08    -6.1075E+08
     2.4998E-02     1.8196E+00     8.5398E+01    -1.4277E+02     1.6637E+02     2.3828E+07     8.7563E+00     2.3127E-01     3.4538E+09    -3.3985E+09     1.3908E+08    -5.9987E+08
     2.5140E-02    -2.9714E+00     8.5435E+01    -1.4361E+02     1.6713E+02     2.3775E+07     8.7601E+00     2.3201E-01     3.4264E+09    -3.3748E+09    -8.6052E+07    -5.8642E+08
     2.5281E-02    -7.7214E+00     8.5158E+01    -1.4443E+02     1.6785E+02     2.3688E+07     8.7583E+00     2.3274E-01     3.4026E+09    -3.3402E+09    -3.0502E+08    -5.7261E+08
     2.5423E-02    -1.2415E+01     8.4576E+01    -1.4523E+02     1.6852E+02     2.3571E+07     8.7523E+00     2.3345E-01     3.3816E+09    -3.2948E+09    -5.1770E+08    -5.5852E+08
     2.5564E-02    -1.7037E+01     8.3697E+01    -1.4601E+02     1.6916E+02     2.3451E+07     8.7454E+00     2.3414E-01     3.3626E+09    -3.2376E+09    -7.2566E+08    -5.4600E+08
