           time        x coord        y coord        z coord         radius           dens           temp             ye            |v|             vx             vy             vz
            sec             km             km             km             km         g/cm^3             GK              -           cm/s           cm/s           cm/s           cm/s
     1.0503E-02     2.4812E+01     6.5012E+01    -7.7508E+01     1.0416E+02     1.1803E+08     1.0890E+01     7.4153E-02     4.8855E+09    -4.3299E+09     2.2288E+09    -3.9036E+08
     1.0644E-02     1.8567E+01     6.7870E+01    -7.8080E+01     1.0511E+02     1.1819E+08     1.0936E+01     7.6673E-02     4.8574E+09    -4.4881E+09     1.8099E+09    -4.1898E+08
     1.0786E-02     1.2126E+01     7.0116E+01    -7.8685E+01     1.0609E+02     1.2313E+08     1.1081E+01     7.9217E-02     4.8284E+09    -4.6118E+09     1.3623E+09    -4.3512E+08
     1.0927E-02     5.5536E+00     7.1715E+01    -7.9308E+01     1.0707E+02     1.2602E+08     1.1206E+01     8.1752E-02     4.7812E+09    -4.6750E+09     8.9764E+08    -4.4562E+08
     1.1069E-02    -1.0804E+00     7.2649E+01    -7.9942E+01     1.0803E+02     1.3067E+08     1.1362E+01     8.4216E-02     4.7396E+09    -4.6992E+09     4.2240E+08    -4.5117E+08
     1.1210E-02    -7.7038E+00     7.2908E+01    -8.0591E+01     1.0895E+02     1.3392E+08     1.1504E+01     8.6797E-02     4.6897E+09    -4.6663E+09    -5.6487E+07    -4.6464E+08
     1.1352E-02    -1.4251E+01     7.2490E+01    -8.1261E+01     1.0982E+02     1.3741E+08     1.1639E+01     8.9253E-02     4.6388E+09    -4.5820E+09    -5.3643E+08    -4.8556E+08
     1.1493E-02    -2.0641E+01     7.1388E+01    -8.1969E+01     1.1064E+02     1.4495E+08     1.1800E+01     9.1646E-02     4.5890E+09    -4.4433E+09    -1.0233E+09    -5.1812E+08
     1.1634E-02    -2.6783E+01     6.9600E+01    -8.2736E+01     1.1139E+02     1.5257E+08     1.1969E+01     9.3737E-02     4.5329E+09    -4.2367E+09    -1.5082E+09    -5.6795E+08
     1.1776E-02    -3.2600E+01     6.7138E+01    -8.3577E+01     1.1205E+02     1.5968E+08     1.2116E+01     9.5727E-02     4.4885E+09    -3.9836E+09    -1.9725E+09    -6.2206E+08
     1.1917E-02    -3.8039E+01     6.4042E+01    -8.4490E+01     1.1264E+02     1.6336E+08     1.2196E+01     9.7818E-02     4.4643E+09    -3.7062E+09    -2.3982E+09    -6.6516E+08
     1.2059E-02    -4.3075E+01     6.0370E+01    -8.5450E+01     1.1314E+02     1.6298E+08     1.2185E+01     9.9794E-02     4.4599E+09    -3.4162E+09    -2.7834E+09    -6.8768E+08
     1.2200E-02    -4.7698E+01     5.6185E+01    -8.6424E+01     1.1358E+02     1.5839E+08     1.2089E+01     1.0173E-01     4.4709E+09    -3.1210E+09    -3.1270E+09    -6.8620E+08
     1.2342E-02    -5.1901E+01     5.1545E+01    -8.7381E+01     1.1396E+02     1.5063E+08     1.1943E+01     1.0372E-01     4.4900E+09    -2.8213E+09    -3.4289E+09    -6.6550E+08
     1.2483E-02    -5.5675E+01     4.6503E+01    -8.8298E+01     1.1428E+02     1.4090E+08     1.1766E+01     1.0579E-01     4.5134E+09    -2.5134E+09    -3.6953E+09    -6.3104E+08
     1.2624E-02    -5.9007E+01     4.1106E+01    -8.9157E+01     1.1455E+02     1.3066E+08     1.1574E+01     1.0803E-01     4.5404E+09    -2.1930E+09    -3.9320E+09    -5.8818E+08
     1.2766E-02    -6.1881E+01     3.5399E+01    -8.9946E+01     1.1477E+02     1.2184E+08     1.1334E+01     1.1018E-01     4.5672E+09    -1.8702E+09    -4.1334E+09    -5.2598E+08
     1.2907E-02    -6.4290E+01     2.9431E+01    -9.0648E+01     1.1496E+02     1.1224E+08     1.1101E+01     1.1244E-01     4.5913E+09    -1.5359E+09    -4.3022E+09    -4.6098E+08
     1.3049E-02    -6.6222E+01     2.3247E+01    -9.1248E+01     1.1512E+02     1.0333E+08     1.0893E+01     1.1464E-01     4.6127E+09    -1.1946E+09    -4.4385E+09    -3.8702E+08
     1.3190E-02    -6.7665E+01     1.6890E+01    -9.1740E+01     1.1524E+02     9.5727E+07     1.0722E+01     1.1691E-01     4.6342E+09    -8.4416E+08    -4.5461E+09    -3.0981E+08
     1.3331E-02    -6.8602E+01     1.0402E+01    -9.2127E+01     1.1533E+02     8.8276E+07     1.0545E+01     1.1919E-01     4.6538E+09    -4.7968E+08    -4.6229E+09    -2.3927E+08
     1.3473E-02    -6.9024E+01     3.8295E+00    -9.2411E+01     1.1541E+02     8.2510E+07     1.0351E+01     1.2172E-01     4.6730E+09    -1.1135E+08    -4.6688E+09    -1.6209E+08
     1.3614E-02    -6.8924E+01    -2.7858E+00    -9.2584E+01     1.1545E+02     7.8222E+07     1.0214E+01     1.2399E-01     4.6876E+09     2.5163E+08    -4.6801E+09    -8.0877E+07
     1.3756E-02    -6.8306E+01    -9.3949E+00    -9.2645E+01     1.1549E+02     7.4431E+07     1.0107E+01     1.2645E-01     4.7021E+09     6.2241E+08    -4.6607E+09    -7.2731E+06
     1.3897E-02    -6.7166E+01    -1.5951E+01    -9.2610E+01     1.1551E+02     7.2151E+07     1.0057E+01     1.2879E-01     4.7110E+09     9.9058E+08    -4.6053E+09     5.4360E+07
     1.4039E-02    -6.5510E+01    -2.2404E+01    -9.2500E+01     1.1554E+02     7.1378E+07     1.0061E+01     1.3101E-01     4.7136E+09     1.3518E+09    -4.5145E+09     9.8351E+07
     1.4180E-02    -6.3344E+01    -2.8703E+01    -9.2345E+01     1.1560E+02     7.2295E+07     1.0139E+01     1.3325E-01     4.7101E+09     1.7112E+09    -4.3868E+09     1.1469E+08
     1.4321E-02    -6.0676E+01    -3.4794E+01    -9.2195E+01     1.1572E+02     7.5644E+07     1.0320E+01     1.3535E-01     4.6960E+09     2.0605E+09    -4.2188E+09     9.0011E+07
     1.4463E-02    -5.7519E+01    -4.0617E+01    -9.2113E+01     1.1594E+02     8.1680E+07     1.0617E+01     1.3748E-01     4.6720E+09     2.4018E+09    -4.0073E+09     1.9991E+07
     1.4604E-02    -5.3897E+01    -4.6116E+01    -9.2153E+01     1.1629E+02     9.0995E+07     1.0903E+01     1.3964E-01     4.6413E+09     2.7134E+09    -3.7647E+09    -8.0340E+07
     1.4746E-02    -4.9837E+01    -5.1229E+01    -9.2340E+01     1.1677E+02     1.0214E+08     1.1249E+01     1.4176E-01     4.6003E+09     3.0180E+09    -3.4672E+09    -1.8307E+08
     1.4887E-02    -4.5371E+01    -5.5900E+01    -9.2651E+01     1.1733E+02     1.1158E+08     1.1562E+01     1.4378E-01     4.5517E+09     3.2927E+09    -3.1328E+09    -2.4706E+08
     1.5029E-02    -4.0547E+01    -6.0089E+01    -9.3023E+01     1.1793E+02     1.1843E+08     1.1747E+01     1.4564E-01     4.4968E+09     3.5196E+09    -2.7850E+09    -2.7946E+08
     1.5170E-02    -3.5420E+01    -6.3758E+01    -9.3418E+01     1.1852E+02     1.2751E+08     1.1952E+01     1.4742E-01     4.4394E+09     3.7239E+09    -2.4008E+09    -2.7698E+08
     1.5311E-02    -3.0033E+01    -6.6879E+01    -9.3801E+01     1.1905E+02     1.3467E+08     1.2117E+01     1.4924E-01     4.3864E+09     3.8901E+09    -2.0100E+09    -2.6067E+08
     1.5453E-02    -2.4440E+01    -6.9449E+01    -9.4151E+01     1.1952E+02     1.3942E+08     1.2238E+01     1.5080E-01     4.3366E+09     4.0146E+09    -1.6232E+09    -2.3334E+08
     1.5594E-02    -1.8688E+01    -7.1477E+01    -9.4458E+01     1.1992E+02     1.4306E+08     1.2329E+01     1.5265E-01     4.3042E+09     4.1148E+09    -1.2468E+09    -2.0051E+08
     1.5736E-02    -1.2812E+01    -7.2982E+01    -9.4720E+01     1.2026E+02     1.4433E+08     1.2370E+01     1.5445E-01     4.2864E+09     4.1904E+09    -8.8557E+08    -1.7037E+08
     1.5875E-02    -6.9145E+00    -7.3976E+01    -9.4941E+01     1.2056E+02     1.4361E+08     1.2373E+01     1.5635E-01     4.2810E+09     4.2441E+09    -5.4058E+08    -1.4716E+08
     1.6013E-02    -1.0477E+00    -7.4489E+01    -9.5132E+01     1.2083E+02     1.4072E+08     1.2336E+01     1.5817E-01     4.2815E+09     4.2745E+09    -2.0797E+08    -1.3098E+08
     1.6152E-02     4.8938E+00    -7.4553E+01    -9.5307E+01     1.2110E+02     1.3783E+08     1.2290E+01     1.6011E-01     4.2916E+09     4.2882E+09     1.1663E+08    -1.2255E+08
     1.6288E-02     1.0733E+01    -7.4179E+01    -9.5472E+01     1.2138E+02     1.3437E+08     1.2234E+01     1.6213E-01     4.3044E+09     4.2810E+09     4.3211E+08    -1.2028E+08
     1.6420E-02     1.6351E+01    -7.3414E+01    -9.5632E+01     1.2167E+02     1.3121E+08     1.2181E+01     1.6391E-01     4.3154E+09     4.2515E+09     7.2982E+08    -1.2322E+08
     1.6551E-02     2.1882E+01    -7.2267E+01    -9.5798E+01     1.2198E+02     1.2825E+08     1.2134E+01     1.6571E-01     4.3241E+09     4.1993E+09     1.0230E+09    -1.3124E+08
     1.6682E-02     2.7355E+01    -7.0732E+01    -9.5978E+01     1.2232E+02     1.2605E+08     1.2099E+01     1.6736E-01     4.3262E+09     4.1198E+09     1.3123E+09    -1.4485E+08
     1.6815E-02     3.2760E+01    -6.8794E+01    -9.6182E+01     1.2271E+02     1.2410E+08     1.2070E+01     1.6886E-01     4.3187E+09     4.0072E+09     1.6020E+09    -1.6404E+08
     1.6949E-02     3.8023E+01    -6.6457E+01    -9.6420E+01     1.2312E+02     1.2470E+08     1.2098E+01     1.7055E-01     4.3039E+09     3.8599E+09     1.8940E+09    -1.9366E+08
     1.7084E-02     4.3120E+01    -6.3696E+01    -9.6708E+01     1.2357E+02     1.2733E+08     1.2168E+01     1.7208E-01     4.2769E+09     3.6686E+09     2.1861E+09    -2.3247E+08
     1.7221E-02     4.8005E+01    -6.0491E+01    -9.7058E+01     1.2403E+02     1.3028E+08     1.2245E+01     1.7337E-01     4.2429E+09     3.4363E+09     2.4733E+09    -2.7737E+08
     1.7361E-02     5.2631E+01    -5.6834E+01    -9.7479E+01     1.2451E+02     1.3477E+08     1.2351E+01     1.7480E-01     4.2139E+09     3.1758E+09     2.7508E+09    -3.2426E+08
     1.7503E-02     5.6929E+01    -5.2758E+01    -9.7967E+01     1.2499E+02     1.3757E+08     1.2421E+01     1.7624E-01     4.1958E+09     2.9036E+09     3.0068E+09    -3.6449E+08
     1.7644E-02     6.0841E+01    -4.8343E+01    -9.8507E+01     1.2547E+02     1.3754E+08     1.2429E+01     1.7755E-01     4.1880E+09     2.6298E+09     3.2352E+09    -3.9666E+08
     1.7785E-02     6.4370E+01    -4.3622E+01    -9.9085E+01     1.2595E+02     1.3538E+08     1.2388E+01     1.7879E-01     4.1888E+09     2.3604E+09     3.4350E+09    -4.1932E+08
     1.7927E-02     6.7521E+01    -3.8635E+01    -9.9688E+01     1.2645E+02     1.3220E+08     1.2325E+01     1.8031E-01     4.1996E+09     2.0958E+09     3.6135E+09    -4.3192E+08
     1.8068E-02     7.0297E+01    -3.3413E+01    -1.0031E+02     1.2696E+02     1.2708E+08     1.2223E+01     1.8167E-01     4.2119E+09     1.8314E+09     3.7673E+09    -4.3970E+08
     1.8210E-02     7.2702E+01    -2.7988E+01    -1.0093E+02     1.2750E+02     1.2190E+08     1.2115E+01     1.8319E-01     4.2276E+09     1.5694E+09     3.9006E+09    -4.4150E+08
     1.8351E-02     7.4734E+01    -2.2391E+01    -1.0155E+02     1.2806E+02     1.1578E+08     1.1989E+01     1.8462E-01     4.2424E+09     1.3043E+09     4.0127E+09    -4.4157E+08
     1.8493E-02     7.6391E+01    -1.6649E+01    -1.0218E+02     1.2866E+02     1.0947E+08     1.1853E+01     1.8601E-01     4.2548E+09     1.0395E+09     4.1024E+09    -4.4023E+08
     1.8634E-02     7.7671E+01    -1.0793E+01    -1.0280E+02     1.2929E+02     1.0432E+08     1.1742E+01     1.8760E-01     4.2682E+09     7.6974E+08     4.1752E+09    -4.3926E+08
     1.8776E-02     7.8564E+01    -4.8494E+00    -1.0342E+02     1.2997E+02     9.8914E+07     1.1622E+01     1.8905E-01     4.2771E+09     4.9513E+08     4.2253E+09    -4.4187E+08
     1.8917E-02     7.9069E+01     1.1493E+00    -1.0405E+02     1.3069E+02     9.4315E+07     1.1489E+01     1.9049E-01     4.2807E+09     2.1902E+08     4.2518E+09    -4.4534E+08
     1.9058E-02     7.9181E+01     7.1685E+00    -1.0468E+02     1.3145E+02     9.0924E+07     1.1390E+01     1.9207E-01     4.2799E+09    -6.0772E+07     4.2564E+09    -4.4378E+08
     1.9200E-02     7.8896E+01     1.3175E+01    -1.0531E+02     1.3224E+02     8.7856E+07     1.1307E+01     1.9352E-01     4.2705E+09    -3.4356E+08     4.2332E+09    -4.4621E+08
     1.9341E-02     7.8207E+01     1.9129E+01    -1.0594E+02     1.3306E+02     8.6030E+07     1.1260E+01     1.9499E-01     4.2530E+09    -6.3068E+08     4.1819E+09    -4.4952E+08
     1.9483E-02     7.7114E+01     2.4988E+01    -1.0658E+02     1.3390E+02     8.4917E+07     1.1238E+01     1.9629E-01     4.2245E+09    -9.1619E+08     4.0987E+09    -4.5631E+08
     1.9624E-02     7.5619E+01     3.0707E+01    -1.0723E+02     1.3476E+02     8.4679E+07     1.1243E+01     1.9738E-01     4.1869E+09    -1.1970E+09     3.9851E+09    -4.6512E+08
     1.9765E-02     7.3731E+01     3.6249E+01    -1.0790E+02     1.3562E+02     8.5342E+07     1.1279E+01     1.9863E-01     4.1456E+09    -1.4703E+09     3.8468E+09    -4.7581E+08
     1.9907E-02     7.1469E+01     4.1578E+01    -1.0858E+02     1.3648E+02     8.5935E+07     1.1313E+01     1.9971E-01     4.1018E+09    -1.7276E+09     3.6877E+09    -4.9037E+08
     2.0048E-02     6.8853E+01     4.6672E+01    -1.0928E+02     1.3734E+02     8.6390E+07     1.1341E+01     2.0075E-01     4.0595E+09    -1.9683E+09     3.5139E+09    -5.0791E+08
     2.0190E-02     6.5908E+01     5.1514E+01    -1.1002E+02     1.3821E+02     8.6531E+07     1.1358E+01     2.0176E-01     4.0202E+09    -2.1911E+09     3.3290E+09    -5.2767E+08
     2.0331E-02     6.2661E+01     5.6087E+01    -1.1078E+02     1.3908E+02     8.6647E+07     1.1372E+01     2.0286E-01     3.9866E+09    -2.3984E+09     3.1371E+09    -5.4705E+08
     2.0473E-02     5.9134E+01     6.0382E+01    -1.1156E+02     1.3996E+02     8.6111E+07     1.1363E+01     2.0384E-01     3.9535E+09    -2.5866E+09     2.9358E+09    -5.6638E+08
     2.0614E-02     5.5353E+01     6.4387E+01    -1.1238E+02     1.4085E+02     8.5298E+07     1.1345E+01     2.0479E-01     3.9220E+09    -2.7576E+09     2.7272E+09    -5.8291E+08
     2.0755E-02     5.1341E+01     6.8093E+01    -1.1321E+02     1.4174E+02     8.4303E+07     1.1321E+01     2.0575E-01     3.8915E+09    -2.9121E+09     2.5117E+09    -5.9547E+08
     2.0897E-02     4.7122E+01     7.1490E+01    -1.1406E+02     1.4262E+02     8.3218E+07     1.1293E+01     2.0667E-01     3.8611E+09    -3.0501E+09     2.2894E+09    -6.0317E+08
     2.1038E-02     4.2718E+01     7.4568E+01    -1.1491E+02     1.4349E+02     8.2343E+07     1.1272E+01     2.0768E-01     3.8329E+09    -3.1738E+09     2.0623E+09    -6.0433E+08
     2.1180E-02     3.8154E+01     7.7320E+01    -1.1577E+02     1.4435E+02     8.1223E+07     1.1244E+01     2.0860E-01     3.8030E+09    -3.2794E+09     1.8291E+09    -6.0214E+08
     2.1321E-02     3.3452E+01     7.9739E+01    -1.1661E+02     1.4518E+02     8.0114E+07     1.1217E+01     2.0950E-01     3.7734E+09    -3.3688E+09     1.5922E+09    -5.9571E+08
     2.1463E-02     2.8634E+01     8.1821E+01    -1.1745E+02     1.4598E+02     7.8985E+07     1.1187E+01     2.1043E-01     3.7450E+09    -3.4426E+09     1.3529E+09    -5.8586E+08
     2.1604E-02     2.3721E+01     8.3565E+01    -1.1827E+02     1.4674E+02     7.7826E+07     1.1156E+01     2.1134E-01     3.7184E+09    -3.5014E+09     1.1127E+09    -5.7369E+08
     2.1746E-02     1.8735E+01     8.4969E+01    -1.1907E+02     1.4747E+02     7.6580E+07     1.1123E+01     2.1227E-01     3.6943E+09    -3.5458E+09     8.7280E+08    -5.6004E+08
     2.1887E-02     1.3695E+01     8.6035E+01    -1.1985E+02     1.4817E+02     7.5419E+07     1.1093E+01     2.1326E-01     3.6750E+09    -3.5785E+09     6.3463E+08    -5.4537E+08
     2.2028E-02     8.6215E+00     8.6765E+01    -1.2061E+02     1.4883E+02     7.4013E+07     1.1055E+01     2.1418E-01     3.6568E+09    -3.5961E+09     3.9754E+08    -5.3170E+08
     2.2170E-02     3.5308E+00     8.7160E+01    -1.2136E+02     1.4946E+02     7.2508E+07     1.1013E+01     2.1512E-01     3.6416E+09    -3.6007E+09     1.6206E+08    -5.1933E+08
     2.2311E-02    -1.5583E+00     8.7224E+01    -1.2208E+02     1.5005E+02     7.0902E+07     1.0966E+01     2.1606E-01     3.6290E+09    -3.5926E+09    -7.1842E+07    -5.0796E+08
     2.2453E-02    -6.6271E+00     8.6958E+01    -1.2280E+02     1.5061E+02     6.9466E+07     1.0926E+01     2.1706E-01     3.6201E+09    -3.5727E+09    -3.0429E+08    -4.9786E+08
     2.2594E-02    -1.1656E+01     8.6364E+01    -1.2349E+02     1.5115E+02     6.7938E+07     1.0883E+01     2.1794E-01     3.6102E+09    -3.5365E+09    -5.3531E+08    -4.9005E+08
     2.2735E-02    -1.6623E+01     8.5445E+01    -1.2418E+02     1.5165E+02     6.6499E+07     1.0842E+01     2.1880E-01     3.6007E+09    -3.4852E+09    -7.6447E+08    -4.8334E+08
     2.2877E-02    -2.1508E+01     8.4201E+01    -1.2486E+02     1.5213E+02     6.5452E+07     1.0813E+01     2.1970E-01     3.5931E+09    -3.4198E+09    -9.9298E+08    -4.7923E+08
     2.3018E-02    -2.6288E+01     8.2639E+01    -1.2554E+02     1.5258E+02     6.4352E+07     1.0782E+01     2.2050E-01     3.5845E+09    -3.3378E+09    -1.2172E+09    -4.7594E+08
     2.3160E-02    -3.0942E+01     8.0760E+01    -1.2621E+02     1.5300E+02     6.3331E+07     1.0753E+01     2.2124E-01     3.5765E+09    -3.2404E+09    -1.4375E+09    -4.7422E+08
     2.3301E-02    -3.5449E+01     7.8575E+01    -1.2688E+02     1.5339E+02     6.2709E+07     1.0739E+01     2.2207E-01     3.5722E+09    -3.1311E+09    -1.6529E+09    -4.7403E+08
     2.3443E-02    -3.9793E+01     7.6091E+01    -1.2755E+02     1.5376E+02     6.1712E+07     1.0711E+01     2.2279E-01     3.5692E+09    -3.0096E+09    -1.8592E+09    -4.7339E+08
     2.3584E-02    -4.3958E+01     7.3321E+01    -1.2822E+02     1.5410E+02     6.0612E+07     1.0679E+01     2.2349E-01     3.5694E+09    -2.8784E+09    -2.0569E+09    -4.7386E+08
     2.3726E-02    -4.7933E+01     7.0278E+01    -1.2889E+02     1.5443E+02     5.9782E+07     1.0655E+01     2.2425E-01     3.5743E+09    -2.7405E+09    -2.2454E+09    -4.7242E+08
     2.3867E-02    -5.1706E+01     6.6975E+01    -1.2956E+02     1.5474E+02     5.8400E+07     1.0612E+01     2.2499E-01     3.5816E+09    -2.5946E+09    -2.4235E+09    -4.7144E+08
     2.4008E-02    -5.5269E+01     6.3428E+01    -1.3022E+02     1.5503E+02     5.7006E+07     1.0558E+01     2.2571E-01     3.5922E+09    -2.4422E+09    -2.5918E+09    -4.7159E+08
     2.4150E-02    -5.8614E+01     5.9651E+01    -1.3088E+02     1.5532E+02     5.5720E+07     1.0493E+01     2.2646E-01     3.6057E+09    -2.2878E+09    -2.7477E+09    -4.6559E+08
     2.4291E-02    -6.1736E+01     5.5661E+01    -1.3154E+02     1.5560E+02     5.4169E+07     1.0412E+01     2.2719E-01     3.6205E+09    -2.1271E+09    -2.8933E+09    -4.6083E+08
     2.4433E-02    -6.4629E+01     5.1472E+01    -1.3219E+02     1.5588E+02     5.2594E+07     1.0330E+01     2.2793E-01     3.6362E+09    -1.9625E+09    -3.0275E+09    -4.5267E+08
     2.4574E-02    -6.7286E+01     4.7101E+01    -1.3282E+02     1.5616E+02     5.1048E+07     1.0254E+01     2.2869E-01     3.6542E+09    -1.7944E+09    -3.1525E+09    -4.4128E+08
     2.4716E-02    -6.9702E+01     4.2561E+01    -1.3343E+02     1.5644E+02     4.9418E+07     1.0171E+01     2.2942E-01     3.6712E+09    -1.6215E+09    -3.2658E+09    -4.2864E+08
     2.4857E-02    -7.1871E+01     3.7867E+01    -1.3403E+02     1.5673E+02     4.7756E+07     1.0088E+01     2.3016E-01     3.6886E+09    -1.4449E+09    -3.3685E+09    -4.1430E+08
     2.4998E-02    -7.3787E+01     3.3035E+01    -1.3460E+02     1.5702E+02     4.6124E+07     1.0011E+01     2.3100E-01     3.7078E+09    -1.2644E+09    -3.4627E+09    -3.9845E+08
     2.5140E-02    -7.5446E+01     2.8078E+01    -1.3516E+02     1.5731E+02     4.4415E+07     9.9271E+00     2.3180E-01     3.7257E+09    -1.0808E+09    -3.5450E+09    -3.8126E+08
     2.5281E-02    -7.6842E+01     2.3012E+01    -1.3568E+02     1.5762E+02     4.2757E+07     9.8493E+00     2.3261E-01     3.7446E+09    -8.9335E+08    -3.6182E+09    -3.6368E+08
     2.5423E-02    -7.7972E+01     1.7850E+01    -1.3618E+02     1.5794E+02     4.0861E+07     9.7598E+00     2.3340E-01     3.7615E+09    -7.0432E+08    -3.6788E+09    -3.4550E+08
