           time        x coord        y coord        z coord         radius           dens           temp             ye            |v|             vx             vy             vz
            sec             km             km             km             km         g/cm^3             GK              -           cm/s           cm/s           cm/s           cm/s
     1.0503E-02    -6.9844E+01     8.7321E+00     7.7725E+01     1.0486E+02     2.7113E+08     1.2861E+01     7.7114E-02     4.7812E+09    -1.9546E+08    -4.7493E+09     5.1618E+08
     1.0644E-02    -6.9832E+01     1.9796E+00     7.8438E+01     1.0504E+02     2.5276E+08     1.2660E+01     8.0197E-02     4.8249E+09     2.1367E+08    -4.7950E+09     4.9195E+08
     1.0786E-02    -6.9238E+01    -4.8122E+00     7.9115E+01     1.0524E+02     2.3462E+08     1.2433E+01     8.3264E-02     4.8662E+09     6.2616E+08    -4.8034E+09     4.6448E+08
     1.0927E-02    -6.8065E+01    -1.1588E+01     7.9746E+01     1.0548E+02     2.1873E+08     1.2241E+01     8.6197E-02     4.9020E+09     1.0350E+09    -4.7723E+09     4.2913E+08
     1.1069E-02    -6.6319E+01    -1.8289E+01     8.0325E+01     1.0576E+02     2.0483E+08     1.2076E+01     8.8982E-02     4.9296E+09     1.4379E+09    -4.6990E+09     3.9043E+08
     1.1210E-02    -6.4003E+01    -2.4857E+01     8.0851E+01     1.0607E+02     1.9264E+08     1.1941E+01     9.1870E-02     4.9504E+09     1.8394E+09    -4.5824E+09     3.5363E+08
     1.1352E-02    -6.1129E+01    -3.1229E+01     8.1326E+01     1.0642E+02     1.8271E+08     1.1836E+01     9.4605E-02     4.9628E+09     2.2290E+09    -4.4226E+09     3.1946E+08
     1.1493E-02    -5.7710E+01    -3.7342E+01     8.1757E+01     1.0681E+02     1.7502E+08     1.1756E+01     9.7074E-02     4.9640E+09     2.6040E+09    -4.2162E+09     2.8990E+08
     1.1634E-02    -5.3768E+01    -4.3132E+01     8.2146E+01     1.0723E+02     1.6871E+08     1.1699E+01     9.9532E-02     4.9588E+09     2.9636E+09    -3.9672E+09     2.5954E+08
     1.1776E-02    -4.9331E+01    -4.8538E+01     8.2490E+01     1.0768E+02     1.6452E+08     1.1669E+01     1.0186E-01     4.9458E+09     3.3052E+09    -3.6723E+09     2.2595E+08
     1.1917E-02    -4.4436E+01    -5.3503E+01     8.2782E+01     1.0812E+02     1.6171E+08     1.1659E+01     1.0412E-01     4.9255E+09     3.6120E+09    -3.3434E+09     1.8659E+08
     1.2059E-02    -3.9130E+01    -5.7980E+01     8.3013E+01     1.0855E+02     1.6024E+08     1.1670E+01     1.0625E-01     4.9003E+09     3.8882E+09    -2.9793E+09     1.3847E+08
     1.2200E-02    -3.3461E+01    -6.1928E+01     8.3169E+01     1.0896E+02     1.6037E+08     1.1704E+01     1.0835E-01     4.8732E+09     4.1238E+09    -2.5952E+09     8.2128E+07
     1.2342E-02    -2.7484E+01    -6.5318E+01     8.3242E+01     1.0932E+02     1.6082E+08     1.1746E+01     1.1059E-01     4.8476E+09     4.3222E+09    -2.1949E+09     1.9722E+07
     1.2483E-02    -2.1254E+01    -6.8128E+01     8.3225E+01     1.0963E+02     1.6244E+08     1.1806E+01     1.1282E-01     4.8229E+09     4.4826E+09    -1.7791E+09    -4.4921E+07
     1.2624E-02    -1.4826E+01    -7.0344E+01     8.3118E+01     1.0989E+02     1.6486E+08     1.1877E+01     1.1497E-01     4.7983E+09     4.6019E+09    -1.3546E+09    -1.0630E+08
     1.2766E-02    -8.2550E+00    -7.1954E+01     8.2928E+01     1.1010E+02     1.6743E+08     1.1954E+01     1.1715E-01     4.7774E+09     4.6847E+09    -9.2284E+08    -1.6049E+08
     1.2907E-02    -1.5926E+00    -7.2953E+01     8.2668E+01     1.1027E+02     1.7063E+08     1.2041E+01     1.1953E-01     4.7593E+09     4.7298E+09    -4.8891E+08    -2.0254E+08
     1.3049E-02     5.1075E+00    -7.3334E+01     8.2360E+01     1.1039E+02     1.7420E+08     1.2140E+01     1.2209E-01     4.7433E+09     4.7376E+09    -4.9735E+07    -2.2833E+08
     1.3190E-02     1.1789E+01    -7.3092E+01     8.2032E+01     1.1050E+02     1.7858E+08     1.2256E+01     1.2457E-01     4.7258E+09     4.7038E+09     3.9275E+08    -2.3069E+08
     1.3331E-02     1.8389E+01    -7.2224E+01     8.1722E+01     1.1060E+02     1.8552E+08     1.2414E+01     1.2688E-01     4.7035E+09     4.6239E+09     8.3704E+08    -2.0519E+08
     1.3473E-02     2.4841E+01    -7.0727E+01     8.1467E+01     1.1071E+02     1.9550E+08     1.2623E+01     1.2898E-01     4.6727E+09     4.4916E+09     1.2792E+09    -1.5208E+08
     1.3614E-02     3.1068E+01    -6.8606E+01     8.1302E+01     1.1083E+02     2.0865E+08     1.2869E+01     1.3108E-01     4.6360E+09     4.3053E+09     1.7180E+09    -7.6280E+07
     1.3756E-02     3.6994E+01    -6.5872E+01     8.1259E+01     1.1095E+02     2.2577E+08     1.3144E+01     1.3299E-01     4.5970E+09     4.0668E+09     2.1432E+09     1.9154E+07
     1.3897E-02     4.2554E+01    -6.2552E+01     8.1358E+01     1.1110E+02     2.4403E+08     1.3418E+01     1.3494E-01     4.5676E+09     3.7912E+09     2.5446E+09     1.2061E+08
     1.4039E-02     4.7708E+01    -5.8691E+01     8.1597E+01     1.1126E+02     2.6006E+08     1.3646E+01     1.3685E-01     4.5519E+09     3.4950E+09     2.9084E+09     2.1504E+08
     1.4180E-02     5.2432E+01    -5.4341E+01     8.1959E+01     1.1144E+02     2.7083E+08     1.3800E+01     1.3880E-01     4.5498E+09     3.1843E+09     3.2364E+09     2.9473E+08
     1.4321E-02     5.6712E+01    -4.9555E+01     8.2421E+01     1.1165E+02     2.7697E+08     1.3887E+01     1.4077E-01     4.5577E+09     2.8651E+09     3.5267E+09     3.5605E+08
     1.4463E-02     6.0529E+01    -4.4381E+01     8.2958E+01     1.1187E+02     2.7753E+08     1.3906E+01     1.4274E-01     4.5703E+09     2.5315E+09     3.7841E+09     3.9963E+08
     1.4604E-02     6.3868E+01    -3.8867E+01     8.3543E+01     1.1211E+02     2.7486E+08     1.3883E+01     1.4477E-01     4.5852E+09     2.1876E+09     4.0072E+09     4.2584E+08
     1.4746E-02     6.6708E+01    -3.3060E+01     8.4156E+01     1.1236E+02     2.6882E+08     1.3823E+01     1.4684E-01     4.6010E+09     1.8277E+09     4.1996E+09     4.3910E+08
     1.4887E-02     6.9035E+01    -2.7007E+01     8.4780E+01     1.1262E+02     2.6157E+08     1.3746E+01     1.4896E-01     4.6156E+09     1.4595E+09     4.3564E+09     4.4143E+08
     1.5029E-02     7.0836E+01    -2.0757E+01     8.5401E+01     1.1288E+02     2.5386E+08     1.3661E+01     1.5106E-01     4.6279E+09     1.0855E+09     4.4776E+09     4.3624E+08
     1.5170E-02     7.2102E+01    -1.4358E+01     8.6012E+01     1.1315E+02     2.4517E+08     1.3569E+01     1.5323E-01     4.6405E+09     7.0526E+08     4.5666E+09     4.2723E+08
     1.5311E-02     7.2832E+01    -7.8560E+00     8.6608E+01     1.1343E+02     2.3718E+08     1.3483E+01     1.5549E-01     4.6520E+09     3.2599E+08     4.6220E+09     4.1580E+08
     1.5453E-02     7.3025E+01    -1.2991E+00     8.7188E+01     1.1374E+02     2.2866E+08     1.3388E+01     1.5767E-01     4.6635E+09    -5.2143E+07     4.6456E+09     4.0434E+08
     1.5594E-02     7.2687E+01     5.2684E+00     8.7753E+01     1.1407E+02     2.2043E+08     1.3299E+01     1.5997E-01     4.6730E+09    -4.2403E+08     4.6369E+09     3.9432E+08
     1.5736E-02     7.1829E+01     1.1802E+01     8.8304E+01     1.1444E+02     2.1260E+08     1.3210E+01     1.6223E-01     4.6801E+09    -7.8794E+08     4.5972E+09     3.8610E+08
     1.5875E-02     7.0483E+01     1.8182E+01     8.8839E+01     1.1485E+02     2.0544E+08     1.3129E+01     1.6439E-01     4.6832E+09    -1.1366E+09     4.5272E+09     3.7988E+08
     1.6013E-02     6.8687E+01     2.4352E+01     8.9359E+01     1.1531E+02     1.9926E+08     1.3058E+01     1.6647E-01     4.6816E+09    -1.4688E+09     4.4294E+09     3.7559E+08
     1.6152E-02     6.6425E+01     3.0412E+01     8.9878E+01     1.1582E+02     1.9375E+08     1.2993E+01     1.6847E-01     4.6741E+09    -1.7902E+09     4.3016E+09     3.7301E+08
     1.6288E-02     6.3779E+01     3.6170E+01     9.0386E+01     1.1639E+02     1.8957E+08     1.2948E+01     1.7041E-01     4.6607E+09    -2.0925E+09     4.1479E+09     3.7210E+08
     1.6420E-02     6.0840E+01     4.1518E+01     9.0876E+01     1.1698E+02     1.8644E+08     1.2917E+01     1.7217E-01     4.6408E+09    -2.3705E+09     3.9722E+09     3.7257E+08
     1.6551E-02     5.7565E+01     4.6587E+01     9.1364E+01     1.1761E+02     1.8469E+08     1.2907E+01     1.7385E-01     4.6145E+09    -2.6323E+09     3.7716E+09     3.7356E+08
     1.6682E-02     5.3940E+01     5.1400E+01     9.1856E+01     1.1828E+02     1.8389E+08     1.2912E+01     1.7545E-01     4.5815E+09    -2.8793E+09     3.5440E+09     3.7466E+08
     1.6815E-02     4.9956E+01     5.5944E+01     9.2354E+01     1.1897E+02     1.8438E+08     1.2939E+01     1.7702E-01     4.5424E+09    -3.1107E+09     3.2889E+09     3.7474E+08
     1.6949E-02     4.5654E+01     6.0156E+01     9.2855E+01     1.1969E+02     1.8590E+08     1.2981E+01     1.7848E-01     4.4974E+09    -3.3222E+09     3.0083E+09     3.7366E+08
     1.7084E-02     4.1027E+01     6.4021E+01     9.3358E+01     1.2041E+02     1.8848E+08     1.3041E+01     1.7994E-01     4.4491E+09    -3.5140E+09     2.7036E+09     3.7065E+08
     1.7221E-02     3.6080E+01     6.7513E+01     9.3865E+01     1.2112E+02     1.9184E+08     1.3114E+01     1.8131E-01     4.3978E+09    -3.6824E+09     2.3763E+09     3.6601E+08
     1.7361E-02     3.0826E+01     7.0597E+01     9.4372E+01     1.2182E+02     1.9578E+08     1.3196E+01     1.8272E-01     4.3472E+09    -3.8264E+09     2.0315E+09     3.5927E+08
     1.7503E-02     2.5329E+01     7.3220E+01     9.4874E+01     1.2249E+02     1.9956E+08     1.3276E+01     1.8413E-01     4.2991E+09    -3.9429E+09     1.6772E+09     3.5088E+08
     1.7644E-02     1.9686E+01     7.5341E+01     9.5364E+01     1.2312E+02     2.0300E+08     1.3348E+01     1.8557E-01     4.2568E+09    -4.0317E+09     1.3228E+09     3.4079E+08
     1.7785E-02     1.3938E+01     7.6964E+01     9.5838E+01     1.2370E+02     2.0535E+08     1.3404E+01     1.8703E-01     4.2209E+09    -4.0938E+09     9.7366E+08     3.2948E+08
     1.7927E-02     8.1183E+00     7.8099E+01     9.6295E+01     1.2425E+02     2.0670E+08     1.3443E+01     1.8851E-01     4.1920E+09    -4.1318E+09     6.3272E+08     3.1707E+08
     1.8068E-02     2.2613E+00     7.8758E+01     9.6734E+01     1.2476E+02     2.0687E+08     1.3464E+01     1.9000E-01     4.1694E+09    -4.1474E+09     3.0139E+08     3.0422E+08
     1.8210E-02    -3.6031E+00     7.8956E+01     9.7156E+01     1.2525E+02     2.0589E+08     1.3467E+01     1.9154E-01     4.1528E+09    -4.1425E+09    -2.0843E+07     2.9154E+08
     1.8351E-02    -9.4467E+00     7.8704E+01     9.7560E+01     1.2570E+02     2.0420E+08     1.3459E+01     1.9305E-01     4.1409E+09    -4.1178E+09    -3.3434E+08     2.8032E+08
     1.8493E-02    -1.5241E+01     7.8013E+01     9.7950E+01     1.2614E+02     2.0182E+08     1.3439E+01     1.9452E-01     4.1317E+09    -4.0727E+09    -6.4036E+08     2.7222E+08
     1.8634E-02    -2.0957E+01     7.6895E+01     9.8332E+01     1.2658E+02     1.9949E+08     1.3415E+01     1.9592E-01     4.1248E+09    -4.0072E+09    -9.4021E+08     2.6898E+08
     1.8776E-02    -2.6566E+01     7.5358E+01     9.8713E+01     1.2700E+02     1.9666E+08     1.3383E+01     1.9726E-01     4.1201E+09    -3.9219E+09    -1.2332E+09     2.7086E+08
     1.8917E-02    -3.2041E+01     7.3411E+01     9.9101E+01     1.2742E+02     1.9333E+08     1.3342E+01     1.9857E-01     4.1176E+09    -3.8172E+09    -1.5187E+09     2.7806E+08
     1.9058E-02    -3.7354E+01     7.1065E+01     9.9502E+01     1.2785E+02     1.8970E+08     1.3293E+01     1.9983E-01     4.1175E+09    -3.6933E+09    -1.7970E+09     2.8968E+08
     1.9200E-02    -4.2479E+01     6.8333E+01     9.9921E+01     1.2829E+02     1.8524E+08     1.3228E+01     2.0100E-01     4.1192E+09    -3.5519E+09    -2.0637E+09     3.0381E+08
     1.9341E-02    -4.7394E+01     6.5233E+01     1.0036E+02     1.2874E+02     1.8029E+08     1.3152E+01     2.0218E-01     4.1236E+09    -3.3952E+09    -2.3186E+09     3.1823E+08
     1.9483E-02    -5.2075E+01     6.1782E+01     1.0082E+02     1.2920E+02     1.7469E+08     1.3061E+01     2.0334E-01     4.1292E+09    -3.2236E+09    -2.5591E+09     3.3168E+08
     1.9624E-02    -5.6504E+01     5.8001E+01     1.0130E+02     1.2969E+02     1.6896E+08     1.2965E+01     2.0434E-01     4.1348E+09    -3.0372E+09    -2.7848E+09     3.4253E+08
     1.9765E-02    -6.0660E+01     5.3913E+01     1.0179E+02     1.3018E+02     1.6314E+08     1.2863E+01     2.0541E-01     4.1398E+09    -2.8378E+09    -2.9936E+09     3.5091E+08
     1.9907E-02    -6.4525E+01     4.9542E+01     1.0229E+02     1.3069E+02     1.5757E+08     1.2764E+01     2.0650E-01     4.1435E+09    -2.6256E+09    -3.1855E+09     3.5639E+08
     2.0048E-02    -6.8081E+01     4.4911E+01     1.0280E+02     1.3122E+02     1.5230E+08     1.2670E+01     2.0763E-01     4.1454E+09    -2.4009E+09    -3.3602E+09     3.5923E+08
     2.0190E-02    -7.1308E+01     4.0047E+01     1.0330E+02     1.3176E+02     1.4775E+08     1.2585E+01     2.0867E-01     4.1433E+09    -2.1625E+09    -3.5159E+09     3.5900E+08
     2.0331E-02    -7.4191E+01     3.4976E+01     1.0381E+02     1.3230E+02     1.4373E+08     1.2513E+01     2.0974E-01     4.1382E+09    -1.9124E+09    -3.6524E+09     3.5647E+08
     2.0473E-02    -7.6711E+01     2.9726E+01     1.0431E+02     1.3285E+02     1.4057E+08     1.2458E+01     2.1073E-01     4.1284E+09    -1.6494E+09    -3.7683E+09     3.5143E+08
     2.0614E-02    -7.8852E+01     2.4326E+01     1.0480E+02     1.3339E+02     1.3797E+08     1.2415E+01     2.1177E-01     4.1158E+09    -1.3762E+09    -3.8635E+09     3.4468E+08
     2.0755E-02    -8.0601E+01     1.8807E+01     1.0528E+02     1.3392E+02     1.3597E+08     1.2384E+01     2.1286E-01     4.1006E+09    -1.0942E+09    -3.9376E+09     3.3638E+08
     2.0897E-02    -8.1944E+01     1.3199E+01     1.0575E+02     1.3444E+02     1.3453E+08     1.2365E+01     2.1390E-01     4.0821E+09    -8.0481E+08    -3.9886E+09     3.2674E+08
     2.1038E-02    -8.2876E+01     7.5340E+00     1.0621E+02     1.3493E+02     1.3339E+08     1.2354E+01     2.1498E-01     4.0626E+09    -5.1180E+08    -4.0178E+09     3.1586E+08
     2.1180E-02    -8.3392E+01     1.8428E+00     1.0665E+02     1.3539E+02     1.3248E+08     1.2349E+01     2.1614E-01     4.0431E+09    -2.1765E+08    -4.0258E+09     3.0403E+08
     2.1321E-02    -8.3493E+01    -3.8438E+00     1.0707E+02     1.3583E+02     1.3151E+08     1.2342E+01     2.1723E-01     4.0237E+09     7.3789E+07    -4.0124E+09     2.9175E+08
     2.1463E-02    -8.3185E+01    -9.4985E+00     1.0747E+02     1.3624E+02     1.3049E+08     1.2334E+01     2.1837E-01     4.0068E+09     3.6052E+08    -3.9808E+09     2.7938E+08
     2.1604E-02    -8.2478E+01    -1.5094E+01     1.0786E+02     1.3662E+02     1.2924E+08     1.2320E+01     2.1937E-01     3.9909E+09     6.3852E+08    -3.9304E+09     2.6806E+08
     2.1746E-02    -8.1382E+01    -2.0607E+01     1.0823E+02     1.3697E+02     1.2793E+08     1.2304E+01     2.2039E-01     3.9768E+09     9.0951E+08    -3.8627E+09     2.5810E+08
     2.1887E-02    -7.9910E+01    -2.6013E+01     1.0859E+02     1.3731E+02     1.2654E+08     1.2285E+01     2.2136E-01     3.9643E+09     1.1701E+09    -3.7794E+09     2.5014E+08
     2.2028E-02    -7.8074E+01    -3.1288E+01     1.0894E+02     1.3763E+02     1.2521E+08     1.2268E+01     2.2239E-01     3.9531E+09     1.4250E+09    -3.6792E+09     2.4447E+08
     2.2170E-02    -7.5886E+01    -3.6411E+01     1.0928E+02     1.3794E+02     1.2412E+08     1.2252E+01     2.2324E-01     3.9408E+09     1.6675E+09    -3.5625E+09     2.4183E+08
     2.2311E-02    -7.3360E+01    -4.1358E+01     1.0962E+02     1.3824E+02     1.2310E+08     1.2241E+01     2.2422E-01     3.9301E+09     1.9031E+09    -3.4302E+09     2.4074E+08
     2.2453E-02    -7.0508E+01    -4.6106E+01     1.0997E+02     1.3853E+02     1.2226E+08     1.2232E+01     2.2510E-01     3.9186E+09     2.1270E+09    -3.2822E+09     2.4156E+08
     2.2594E-02    -6.7347E+01    -5.0634E+01     1.1031E+02     1.3881E+02     1.2163E+08     1.2228E+01     2.2598E-01     3.9079E+09     2.3412E+09    -3.1195E+09     2.4351E+08
     2.2735E-02    -6.3893E+01    -5.4924E+01     1.1066E+02     1.3908E+02     1.2098E+08     1.2222E+01     2.2680E-01     3.8979E+09     2.5416E+09    -2.9451E+09     2.4556E+08
     2.2877E-02    -6.0163E+01    -5.8960E+01     1.1100E+02     1.3935E+02     1.2008E+08     1.2212E+01     2.2770E-01     3.8910E+09     2.7314E+09    -2.7601E+09     2.4629E+08
     2.3018E-02    -5.6175E+01    -6.2730E+01     1.1135E+02     1.3960E+02     1.1913E+08     1.2200E+01     2.2858E-01     3.8861E+09     2.9065E+09    -2.5678E+09     2.4614E+08
     2.3160E-02    -5.1950E+01    -6.6222E+01     1.1170E+02     1.3986E+02     1.1793E+08     1.2182E+01     2.2944E-01     3.8832E+09     3.0665E+09    -2.3697E+09     2.4491E+08
     2.3301E-02    -4.7506E+01    -6.9428E+01     1.1204E+02     1.4011E+02     1.1639E+08     1.2157E+01     2.3032E-01     3.8831E+09     3.2145E+09    -2.1648E+09     2.4249E+08
     2.3443E-02    -4.2863E+01    -7.2343E+01     1.1238E+02     1.4036E+02     1.1469E+08     1.2127E+01     2.3121E-01     3.8854E+09     3.3485E+09    -1.9562E+09     2.3936E+08
     2.3584E-02    -3.8040E+01    -7.4958E+01     1.1272E+02     1.4061E+02     1.1271E+08     1.2090E+01     2.3209E-01     3.8896E+09     3.4701E+09    -1.7412E+09     2.3590E+08
     2.3726E-02    -3.3056E+01    -7.7267E+01     1.1305E+02     1.4087E+02     1.1058E+08     1.2050E+01     2.3305E-01     3.8950E+09     3.5774E+09    -1.5229E+09     2.3218E+08
     2.3867E-02    -2.7929E+01    -7.9264E+01     1.1338E+02     1.4113E+02     1.0846E+08     1.2010E+01     2.3401E-01     3.9004E+09     3.6704E+09    -1.2997E+09     2.2932E+08
     2.4008E-02    -2.2680E+01    -8.0939E+01     1.1370E+02     1.4140E+02     1.0628E+08     1.1967E+01     2.3484E-01     3.9056E+09     3.7495E+09    -1.0693E+09     2.2702E+08
     2.4150E-02    -1.7329E+01    -8.2286E+01     1.1402E+02     1.4167E+02     1.0406E+08     1.1924E+01     2.3583E-01     3.9114E+09     3.8150E+09    -8.3345E+08     2.2446E+08
     2.4291E-02    -1.1897E+01    -8.3294E+01     1.1433E+02     1.4196E+02     1.0208E+08     1.1885E+01     2.3679E-01     3.9153E+09     3.8639E+09    -5.9188E+08     2.2290E+08
     2.4433E-02    -6.4079E+00    -8.3957E+01     1.1465E+02     1.4225E+02     1.0021E+08     1.1848E+01     2.3769E-01     3.9175E+09     3.8960E+09    -3.4423E+08     2.2226E+08
     2.4574E-02    -8.8379E-01    -8.4266E+01     1.1496E+02     1.4254E+02     9.8440E+07     1.1814E+01     2.3865E-01     3.9191E+09     3.9118E+09    -9.2378E+07     2.2090E+08
     2.4716E-02     4.6492E+00    -8.4216E+01     1.1528E+02     1.4284E+02     9.6860E+07     1.1785E+01     2.3964E-01     3.9194E+09     3.9098E+09     1.6277E+08     2.2035E+08
     2.4857E-02     1.0166E+01    -8.3806E+01     1.1559E+02     1.4313E+02     9.5440E+07     1.1757E+01     2.4052E-01     3.9177E+09     3.8890E+09     4.1790E+08     2.2128E+08
     2.4998E-02     1.5642E+01    -8.3034E+01     1.1590E+02     1.4343E+02     9.3960E+07     1.1729E+01     2.4153E-01     3.9168E+09     3.8523E+09     6.7289E+08     2.2069E+08
     2.5140E-02     2.1053E+01    -8.1906E+01     1.1621E+02     1.4373E+02     9.2689E+07     1.1703E+01     2.4234E-01     3.9140E+09     3.7973E+09     9.2206E+08     2.2286E+08
     2.5281E-02     2.6376E+01    -8.0427E+01     1.1653E+02     1.4403E+02     9.1339E+07     1.1676E+01     2.4319E-01     3.9124E+09     3.7273E+09     1.1679E+09     2.2430E+08
     2.5423E-02     3.1588E+01    -7.8606E+01     1.1685E+02     1.4433E+02     9.0047E+07     1.1651E+01     2.4410E-01     3.9095E+09     3.6408E+09     1.4061E+09     2.2706E+08
     2.5564E-02     3.6667E+01    -7.6453E+01     1.1717E+02     1.4463E+02     8.8862E+07     1.1628E+01     2.4495E-01     3.9060E+09     3.5386E+09     1.6378E+09     2.3012E+08
