           time        x coord        y coord        z coord         radius           dens           temp             ye            |v|             vx             vy             vz
            sec             km             km             km             km         g/cm^3             GK              -           cm/s           cm/s           cm/s           cm/s
     1.0503E-02     4.9740E+01     4.3969E+01    -7.7820E+01     1.0229E+02     1.1890E+08     1.1269E+01     7.7241E-02     4.8992E+09    -3.1051E+09     3.7411E+09    -6.0415E+08
     1.0644E-02     4.5121E+01     4.9049E+01    -7.8689E+01     1.0312E+02     1.1341E+08     1.1139E+01     7.9932E-02     4.8948E+09    -3.4257E+09     3.4404E+09    -6.2209E+08
     1.0786E-02     4.0069E+01     5.3683E+01    -7.9583E+01     1.0402E+02     1.0648E+08     1.0973E+01     8.2574E-02     4.8884E+09    -3.7177E+09     3.1085E+09    -6.4238E+08
     1.0927E-02     3.4624E+01     5.7827E+01    -8.0512E+01     1.0500E+02     9.8908E+07     1.0787E+01     8.4986E-02     4.8816E+09    -3.9794E+09     2.7470E+09    -6.6942E+08
     1.1069E-02     2.8829E+01     6.1438E+01    -8.1478E+01     1.0604E+02     9.2021E+07     1.0622E+01     8.7355E-02     4.8736E+09    -4.2088E+09     2.3573E+09    -6.9422E+08
     1.1210E-02     2.2739E+01     6.4486E+01    -8.2473E+01     1.0713E+02     8.5946E+07     1.0423E+01     8.9851E-02     4.8624E+09    -4.3975E+09     1.9497E+09    -7.0984E+08
     1.1352E-02     1.6411E+01     6.6947E+01    -8.3480E+01     1.0826E+02     8.0864E+07     1.0248E+01     9.2333E-02     4.8476E+09    -4.5451E+09     1.5281E+09    -7.1151E+08
     1.1493E-02     9.9040E+00     6.8803E+01    -8.4479E+01     1.0940E+02     7.6874E+07     1.0119E+01     9.4757E-02     4.8280E+09    -4.6502E+09     1.0939E+09    -6.9953E+08
     1.1634E-02     3.2794E+00     7.0037E+01    -8.5453E+01     1.1054E+02     7.3912E+07     1.0039E+01     9.7172E-02     4.8036E+09    -4.7113E+09     6.4878E+08    -6.7581E+08
     1.1776E-02    -3.4000E+00     7.0633E+01    -8.6387E+01     1.1164E+02     7.1925E+07     9.9972E+00     9.9540E-02     4.7741E+09    -4.7266E+09     1.9326E+08    -6.4303E+08
     1.1917E-02    -1.0067E+01     7.0578E+01    -8.7268E+01     1.1269E+02     7.0944E+07     9.9989E+00     1.0197E-01     4.7394E+09    -4.6932E+09    -2.6863E+08    -6.0314E+08
     1.2059E-02    -1.6648E+01     6.9864E+01    -8.8090E+01     1.1366E+02     7.1396E+07     1.0059E+01     1.0422E-01     4.6930E+09    -4.6003E+09    -7.3817E+08    -5.6221E+08
     1.2200E-02    -2.3056E+01     6.8485E+01    -8.8859E+01     1.1453E+02     7.3725E+07     1.0195E+01     1.0636E-01     4.6442E+09    -4.4530E+09    -1.2097E+09    -5.2543E+08
     1.2342E-02    -2.9199E+01     6.6439E+01    -8.9586E+01     1.1529E+02     7.6983E+07     1.0379E+01     1.0817E-01     4.5789E+09    -4.2308E+09    -1.6781E+09    -5.0037E+08
     1.2483E-02    -3.4988E+01     6.3742E+01    -9.0282E+01     1.1592E+02     8.1074E+07     1.0598E+01     1.0970E-01     4.5125E+09    -3.9484E+09    -2.1300E+09    -4.8597E+08
     1.2624E-02    -4.0362E+01     6.0438E+01    -9.0954E+01     1.1642E+02     8.4908E+07     1.0721E+01     1.1138E-01     4.4647E+09    -3.6435E+09    -2.5378E+09    -4.6708E+08
     1.2766E-02    -4.5282E+01     5.6587E+01    -9.1606E+01     1.1681E+02     8.6624E+07     1.0782E+01     1.1290E-01     4.4304E+09    -3.3154E+09    -2.9039E+09    -4.5134E+08
     1.2907E-02    -4.9734E+01     5.2246E+01    -9.2230E+01     1.1709E+02     8.6079E+07     1.0771E+01     1.1438E-01     4.4134E+09    -2.9805E+09    -3.2263E+09    -4.3078E+08
     1.3049E-02    -5.3716E+01     4.7480E+01    -9.2815E+01     1.1728E+02     8.4523E+07     1.0727E+01     1.1607E-01     4.4136E+09    -2.6483E+09    -3.5083E+09    -3.9757E+08
     1.3190E-02    -5.7223E+01     4.2344E+01    -9.3352E+01     1.1740E+02     8.0449E+07     1.0625E+01     1.1787E-01     4.4195E+09    -2.3112E+09    -3.7498E+09    -3.5972E+08
     1.3331E-02    -6.0251E+01     3.6886E+01    -9.3831E+01     1.1745E+02     7.6736E+07     1.0488E+01     1.1976E-01     4.4363E+09    -1.9711E+09    -3.9618E+09    -3.1519E+08
     1.3473E-02    -6.2794E+01     3.1154E+01    -9.4248E+01     1.1746E+02     7.2513E+07     1.0307E+01     1.2152E-01     4.4549E+09    -1.6274E+09    -4.1382E+09    -2.7015E+08
     1.3614E-02    -6.4852E+01     2.5195E+01    -9.4592E+01     1.1742E+02     6.8546E+07     1.0149E+01     1.2356E-01     4.4769E+09    -1.2834E+09    -4.2836E+09    -2.1516E+08
     1.3756E-02    -6.6420E+01     1.9051E+01    -9.4857E+01     1.1736E+02     6.4728E+07     1.0009E+01     1.2574E-01     4.5000E+09    -9.3367E+08    -4.3991E+09    -1.6012E+08
     1.3897E-02    -6.7493E+01     1.2768E+01    -9.5045E+01     1.1727E+02     6.0676E+07     9.8659E+00     1.2779E-01     4.5191E+09    -5.8363E+08    -4.4800E+09    -1.0617E+08
     1.4039E-02    -6.8066E+01     6.3887E+00    -9.5165E+01     1.1717E+02     5.7771E+07     9.7744E+00     1.3014E-01     4.5422E+09    -2.2662E+08    -4.5361E+09    -6.1817E+07
     1.4180E-02    -6.8131E+01    -4.8602E-02    -9.5230E+01     1.1709E+02     5.5825E+07     9.7230E+00     1.3232E-01     4.5658E+09     1.3469E+08    -4.5637E+09    -3.1968E+07
     1.4321E-02    -6.7688E+01    -6.5023E+00    -9.5263E+01     1.1704E+02     5.5506E+07     9.7349E+00     1.3462E-01     4.5844E+09     4.9099E+08    -4.5580E+09    -1.6473E+07
     1.4463E-02    -6.6744E+01    -1.2927E+01    -9.5287E+01     1.1705E+02     5.5822E+07     9.7802E+00     1.3693E-01     4.5987E+09     8.4284E+08    -4.5208E+09    -2.1702E+07
     1.4604E-02    -6.5308E+01    -1.9276E+01    -9.5334E+01     1.1716E+02     5.7402E+07     9.8811E+00     1.3928E-01     4.6088E+09     1.1884E+09    -4.4527E+09    -4.7736E+07
     1.4746E-02    -6.3382E+01    -2.5502E+01    -9.5433E+01     1.1737E+02     6.0427E+07     1.0048E+01     1.4152E-01     4.6100E+09     1.5367E+09    -4.3453E+09    -9.5795E+07
     1.4887E-02    -6.0965E+01    -3.1548E+01    -9.5612E+01     1.1770E+02     6.3774E+07     1.0234E+01     1.4367E-01     4.6022E+09     1.8790E+09    -4.1981E+09    -1.5880E+08
     1.5029E-02    -5.8066E+01    -3.7357E+01    -9.5883E+01     1.1816E+02     6.6928E+07     1.0429E+01     1.4595E-01     4.5873E+09     2.2188E+09    -4.0090E+09    -2.2024E+08
     1.5170E-02    -5.4707E+01    -4.2873E+01    -9.6238E+01     1.1871E+02     6.9960E+07     1.0598E+01     1.4773E-01     4.5615E+09     2.5321E+09    -3.7840E+09    -2.7851E+08
     1.5311E-02    -5.0916E+01    -4.8051E+01    -9.6662E+01     1.1935E+02     7.3044E+07     1.0713E+01     1.4983E-01     4.5365E+09     2.8239E+09    -3.5360E+09    -3.2014E+08
     1.5453E-02    -4.6722E+01    -5.2850E+01    -9.7140E+01     1.2005E+02     7.5390E+07     1.0796E+01     1.5139E-01     4.5017E+09     3.0955E+09    -3.2491E+09    -3.5476E+08
     1.5594E-02    -4.2164E+01    -5.7230E+01    -9.7655E+01     1.2079E+02     7.8192E+07     1.0898E+01     1.5343E-01     4.4705E+09     3.3463E+09    -2.9406E+09    -3.7456E+08
     1.5736E-02    -3.7279E+01    -6.1156E+01    -9.8192E+01     1.2154E+02     8.0015E+07     1.0971E+01     1.5507E-01     4.4284E+09     3.5573E+09    -2.6094E+09    -3.8355E+08
     1.5875E-02    -3.2176E+01    -6.4557E+01    -9.8727E+01     1.2227E+02     8.2522E+07     1.1062E+01     1.5676E-01     4.3834E+09     3.7403E+09    -2.2540E+09    -3.7960E+08
     1.6013E-02    -2.6926E+01    -6.7414E+01    -9.9241E+01     1.2296E+02     8.4521E+07     1.1144E+01     1.5826E-01     4.3311E+09     3.8789E+09    -1.8918E+09    -3.6555E+08
     1.6152E-02    -2.1463E+01    -6.9776E+01    -9.9731E+01     1.2359E+02     8.7002E+07     1.1244E+01     1.5987E-01     4.2804E+09     3.9893E+09    -1.5144E+09    -3.3780E+08
     1.6288E-02    -1.5976E+01    -7.1588E+01    -1.0017E+02     1.2416E+02     8.8783E+07     1.1324E+01     1.6137E-01     4.2314E+09     4.0613E+09    -1.1474E+09    -3.0633E+08
     1.6420E-02    -1.0594E+01    -7.2871E+01    -1.0055E+02     1.2463E+02     9.0219E+07     1.1390E+01     1.6293E-01     4.1975E+09     4.1105E+09    -8.0526E+08    -2.7198E+08
     1.6551E-02    -5.1938E+00    -7.3707E+01    -1.0089E+02     1.2505E+02     9.0685E+07     1.1426E+01     1.6455E-01     4.1755E+09     4.1409E+09    -4.7888E+08    -2.4182E+08
     1.6682E-02     2.6064E-01    -7.4130E+01    -1.0119E+02     1.2544E+02     8.9894E+07     1.1419E+01     1.6616E-01     4.1629E+09     4.1537E+09    -1.6599E+08    -2.2141E+08
     1.6815E-02     5.7855E+00    -7.4149E+01    -1.0148E+02     1.2581E+02     8.8702E+07     1.1395E+01     1.6783E-01     4.1636E+09     4.1563E+09     1.3568E+08    -2.0411E+08
     1.6949E-02     1.1335E+01    -7.3771E+01    -1.0174E+02     1.2618E+02     8.6889E+07     1.1346E+01     1.6941E-01     4.1696E+09     4.1432E+09     4.2710E+08    -1.9136E+08
     1.7084E-02     1.6922E+01    -7.2997E+01    -1.0200E+02     1.2656E+02     8.4747E+07     1.1286E+01     1.7105E-01     4.1788E+09     4.1130E+09     7.1473E+08    -1.8594E+08
     1.7221E-02     2.2538E+01    -7.1817E+01    -1.0225E+02     1.2697E+02     8.2213E+07     1.1214E+01     1.7259E-01     4.1859E+09     4.0604E+09     9.9995E+08    -1.8597E+08
     1.7361E-02     2.8168E+01    -7.0217E+01    -1.0251E+02     1.2741E+02     8.0119E+07     1.1160E+01     1.7434E-01     4.1927E+09     3.9857E+09     1.2872E+09    -1.9107E+08
     1.7503E-02     3.3734E+01    -6.8196E+01    -1.0279E+02     1.2789E+02     7.8600E+07     1.1120E+01     1.7594E-01     4.1911E+09     3.8796E+09     1.5724E+09    -2.0279E+08
     1.7644E-02     3.9123E+01    -6.5773E+01    -1.0309E+02     1.2839E+02     7.7762E+07     1.1102E+01     1.7721E-01     4.1744E+09     3.7341E+09     1.8527E+09    -2.2308E+08
     1.7785E-02     4.4275E+01    -6.2952E+01    -1.0343E+02     1.2892E+02     7.8847E+07     1.1152E+01     1.7863E-01     4.1453E+09     3.5434E+09     2.1360E+09    -2.5540E+08
     1.7927E-02     4.9124E+01    -5.9731E+01    -1.0382E+02     1.2946E+02     8.1251E+07     1.1250E+01     1.7995E-01     4.1048E+09     3.3056E+09     2.4152E+09    -2.9818E+08
     1.8068E-02     5.3608E+01    -5.6126E+01    -1.0427E+02     1.2999E+02     8.3887E+07     1.1355E+01     1.8109E-01     4.0624E+09     3.0326E+09     2.6807E+09    -3.4785E+08
     1.8210E-02     5.7697E+01    -5.2162E+01    -1.0480E+02     1.3051E+02     8.6598E+07     1.1463E+01     1.8227E-01     4.0311E+09     2.7481E+09     2.9229E+09    -3.9259E+08
     1.8351E-02     6.1383E+01    -4.7876E+01    -1.0538E+02     1.3102E+02     8.7698E+07     1.1510E+01     1.8328E-01     4.0124E+09     2.4664E+09     3.1350E+09    -4.3324E+08
     1.8493E-02     6.4677E+01    -4.3304E+01    -1.0602E+02     1.3152E+02     8.7065E+07     1.1494E+01     1.8442E-01     4.0089E+09     2.1909E+09     3.3246E+09    -4.6701E+08
     1.8634E-02     6.7589E+01    -3.8482E+01    -1.0669E+02     1.3203E+02     8.5579E+07     1.1445E+01     1.8574E-01     4.0175E+09     1.9283E+09     3.4906E+09    -4.8782E+08
     1.8776E-02     7.0133E+01    -3.3441E+01    -1.0740E+02     1.3256E+02     8.2599E+07     1.1345E+01     1.8696E-01     4.0315E+09     1.6702E+09     3.6344E+09    -5.0522E+08
     1.8917E-02     7.2316E+01    -2.8211E+01    -1.0812E+02     1.3310E+02     7.8971E+07     1.1224E+01     1.8820E-01     4.0496E+09     1.4174E+09     3.7583E+09    -5.1524E+08
     1.9058E-02     7.4145E+01    -2.2818E+01    -1.0885E+02     1.3367E+02     7.5208E+07     1.1098E+01     1.8960E-01     4.0712E+09     1.1686E+09     3.8652E+09    -5.1878E+08
     1.9200E-02     7.5621E+01    -1.7288E+01    -1.0959E+02     1.3426E+02     7.0942E+07     1.0958E+01     1.9092E-01     4.0920E+09     9.1848E+08     3.9535E+09    -5.1988E+08
     1.9341E-02     7.6744E+01    -1.1645E+01    -1.1032E+02     1.3489E+02     6.6526E+07     1.0815E+01     1.9221E-01     4.1110E+09     6.6970E+08     4.0229E+09    -5.1829E+08
     1.9483E-02     7.7511E+01    -5.9147E+00    -1.1106E+02     1.3556E+02     6.2012E+07     1.0668E+01     1.9355E-01     4.1302E+09     4.1436E+08     4.0760E+09    -5.2250E+08
     1.9624E-02     7.7916E+01    -1.2133E-01    -1.1179E+02     1.3627E+02     5.8684E+07     1.0542E+01     1.9485E-01     4.1491E+09     1.5802E+08     4.1132E+09    -5.2140E+08
     1.9765E-02     7.7959E+01     5.7069E+00    -1.1253E+02     1.3702E+02     5.5413E+07     1.0373E+01     1.9629E-01     4.1609E+09    -9.8513E+07     4.1268E+09    -5.2216E+08
     1.9907E-02     7.7638E+01     1.1541E+01    -1.1327E+02     1.3781E+02     5.2634E+07     1.0231E+01     1.9761E-01     4.1667E+09    -3.5443E+08     4.1193E+09    -5.1680E+08
     2.0048E-02     7.6954E+01     1.7349E+01    -1.1399E+02     1.3863E+02     5.0412E+07     1.0127E+01     1.9900E-01     4.1665E+09    -6.1251E+08     4.0896E+09    -5.0986E+08
     2.0190E-02     7.5908E+01     2.3095E+01    -1.1471E+02     1.3948E+02     4.8644E+07     1.0044E+01     2.0024E-01     4.1565E+09    -8.6852E+08     4.0334E+09    -5.0454E+08
     2.0331E-02     7.4501E+01     2.8744E+01    -1.1542E+02     1.4035E+02     4.7434E+07     9.9928E+00     2.0139E-01     4.1364E+09    -1.1220E+09     3.9498E+09    -4.9985E+08
     2.0473E-02     7.2736E+01     3.4255E+01    -1.1613E+02     1.4124E+02     4.6748E+07     9.9696E+00     2.0248E-01     4.1070E+09    -1.3702E+09     3.8398E+09    -4.9634E+08
     2.0614E-02     7.0625E+01     3.9594E+01    -1.1683E+02     1.4214E+02     4.6763E+07     9.9822E+00     2.0362E-01     4.0723E+09    -1.6138E+09     3.7055E+09    -4.9827E+08
     2.0755E-02     6.8179E+01     4.4727E+01    -1.1754E+02     1.4305E+02     4.6887E+07     1.0000E+01     2.0462E-01     4.0324E+09    -1.8443E+09     3.5502E+09    -5.0445E+08
     2.0897E-02     6.5415E+01     4.9628E+01    -1.1826E+02     1.4397E+02     4.7142E+07     1.0024E+01     2.0557E-01     3.9907E+09    -2.0617E+09     3.3776E+09    -5.1644E+08
     2.1038E-02     6.2352E+01     5.4274E+01    -1.1900E+02     1.4490E+02     4.7392E+07     1.0048E+01     2.0649E-01     3.9494E+09    -2.2646E+09     3.1914E+09    -5.3361E+08
     2.1180E-02     5.9012E+01     5.8649E+01    -1.1977E+02     1.4583E+02     4.7750E+07     1.0078E+01     2.0751E-01     3.9114E+09    -2.4558E+09     2.9932E+09    -5.5578E+08
     2.1321E-02     5.5416E+01     6.2736E+01    -1.2057E+02     1.4678E+02     4.7858E+07     1.0094E+01     2.0839E-01     3.8726E+09    -2.6275E+09     2.7856E+09    -5.7794E+08
     2.1463E-02     5.1589E+01     6.6524E+01    -1.2141E+02     1.4774E+02     4.7859E+07     1.0103E+01     2.0927E-01     3.8348E+09    -2.7828E+09     2.5696E+09    -5.9907E+08
     2.1604E-02     4.7552E+01     7.0002E+01    -1.2227E+02     1.4869E+02     4.7766E+07     1.0108E+01     2.1014E-01     3.7978E+09    -2.9215E+09     2.3468E+09    -6.1720E+08
     2.1746E-02     4.3331E+01     7.3159E+01    -1.2315E+02     1.4965E+02     4.7605E+07     1.0108E+01     2.1100E-01     3.7611E+09    -3.0434E+09     2.1179E+09    -6.3089E+08
     2.1887E-02     3.8949E+01     7.5990E+01    -1.2405E+02     1.5060E+02     4.7376E+07     1.0105E+01     2.1186E-01     3.7249E+09    -3.1488E+09     1.8845E+09    -6.3921E+08
     2.2028E-02     3.4430E+01     7.8488E+01    -1.2495E+02     1.5152E+02     4.7233E+07     1.0105E+01     2.1276E-01     3.6906E+09    -3.2394E+09     1.6480E+09    -6.4105E+08
     2.2170E-02     2.9796E+01     8.0650E+01    -1.2586E+02     1.5242E+02     4.6918E+07     1.0096E+01     2.1360E-01     3.6562E+09    -3.3125E+09     1.4098E+09    -6.3821E+08
     2.2311E-02     2.5069E+01     8.2476E+01    -1.2676E+02     1.5329E+02     4.6539E+07     1.0085E+01     2.1445E-01     3.6236E+09    -3.3704E+09     1.1716E+09    -6.3064E+08
     2.2453E-02     2.0271E+01     8.3965E+01    -1.2764E+02     1.5412E+02     4.6077E+07     1.0068E+01     2.1531E-01     3.5937E+09    -3.4142E+09     9.3491E+08    -6.1955E+08
     2.2594E-02     1.5419E+01     8.5121E+01    -1.2851E+02     1.5491E+02     4.5526E+07     1.0045E+01     2.1615E-01     3.5672E+09    -3.4447E+09     7.0083E+08    -6.0610E+08
     2.2735E-02     1.0533E+01     8.5949E+01    -1.2935E+02     1.5566E+02     4.4832E+07     1.0014E+01     2.1701E-01     3.5449E+09    -3.4634E+09     4.6988E+08    -5.9192E+08
     2.2877E-02     5.6277E+00     8.6452E+01    -1.3018E+02     1.5638E+02     4.4031E+07     9.9779E+00     2.1785E-01     3.5263E+09    -3.4703E+09     2.4252E+08    -5.7728E+08
     2.3018E-02     7.2007E-01     8.6636E+01    -1.3099E+02     1.5705E+02     4.3206E+07     9.9408E+00     2.1877E-01     3.5133E+09    -3.4678E+09     1.8268E+07    -5.6290E+08
     2.3160E-02    -4.1744E+00     8.6505E+01    -1.3178E+02     1.5769E+02     4.2225E+07     9.8969E+00     2.1965E-01     3.5025E+09    -3.4532E+09    -2.0314E+08    -5.4983E+08
     2.3301E-02    -9.0393E+00     8.6063E+01    -1.3254E+02     1.5829E+02     4.1242E+07     9.8503E+00     2.2050E-01     3.4934E+09    -3.4257E+09    -4.2241E+08    -5.3816E+08
     2.3443E-02    -1.3856E+01     8.5311E+01    -1.3330E+02     1.5887E+02     4.0253E+07     9.8036E+00     2.2128E-01     3.4840E+09    -3.3838E+09    -6.3936E+08    -5.2845E+08
     2.3584E-02    -1.8606E+01     8.4254E+01    -1.3404E+02     1.5941E+02     3.9308E+07     9.7610E+00     2.2207E-01     3.4762E+09    -3.3289E+09    -8.5492E+08    -5.2121E+08
     2.3726E-02    -2.3267E+01     8.2894E+01    -1.3477E+02     1.5993E+02     3.8857E+07     9.7433E+00     2.2289E-01     3.4690E+09    -3.2598E+09    -1.0687E+09    -5.1535E+08
     2.3867E-02    -2.7817E+01     8.1233E+01    -1.3550E+02     1.6041E+02     3.8263E+07     9.7185E+00     2.2361E-01     3.4603E+09    -3.1736E+09    -1.2800E+09    -5.1306E+08
     2.4008E-02    -3.2237E+01     7.9276E+01    -1.3622E+02     1.6088E+02     3.7777E+07     9.6977E+00     2.2432E-01     3.4522E+09    -3.0732E+09    -1.4869E+09    -5.1203E+08
     2.4150E-02    -3.6507E+01     7.7031E+01    -1.3695E+02     1.6131E+02     3.7535E+07     9.6905E+00     2.2507E-01     3.4470E+09    -2.9620E+09    -1.6874E+09    -5.1148E+08
     2.4291E-02    -4.0608E+01     7.4506E+01    -1.3767E+02     1.6172E+02     3.7159E+07     9.6751E+00     2.2573E-01     3.4435E+09    -2.8382E+09    -1.8811E+09    -5.1347E+08
     2.4433E-02    -4.4528E+01     7.1712E+01    -1.3840E+02     1.6211E+02     3.6698E+07     9.6554E+00     2.2640E-01     3.4435E+09    -2.7051E+09    -2.0672E+09    -5.1666E+08
     2.4574E-02    -4.8258E+01     6.8664E+01    -1.3913E+02     1.6249E+02     3.6125E+07     9.6125E+00     2.2702E-01     3.4477E+09    -2.5652E+09    -2.2438E+09    -5.2129E+08
     2.4716E-02    -5.1786E+01     6.5373E+01    -1.3987E+02     1.6285E+02     3.5586E+07     9.5712E+00     2.2770E-01     3.4563E+09    -2.4235E+09    -2.4087E+09    -5.2061E+08
     2.4857E-02    -5.5108E+01     6.1854E+01    -1.4061E+02     1.6320E+02     3.4794E+07     9.5079E+00     2.2841E-01     3.4684E+09    -2.2747E+09    -2.5655E+09    -5.2324E+08
     2.4998E-02    -5.8218E+01     5.8122E+01    -1.4135E+02     1.6355E+02     3.3963E+07     9.4379E+00     2.2908E-01     3.4827E+09    -2.1227E+09    -2.7112E+09    -5.2200E+08
     2.5140E-02    -6.1112E+01     5.4191E+01    -1.4209E+02     1.6389E+02     3.3044E+07     9.3627E+00     2.2976E-01     3.4987E+09    -1.9679E+09    -2.8461E+09    -5.1822E+08
     2.5281E-02    -6.3783E+01     5.0075E+01    -1.4281E+02     1.6423E+02     3.2100E+07     9.2876E+00     2.3045E-01     3.5171E+09    -1.8093E+09    -2.9724E+09    -5.1124E+08
     2.5423E-02    -6.6228E+01     4.5788E+01    -1.4353E+02     1.6457E+02     3.1077E+07     9.2048E+00     2.3118E-01     3.5360E+09    -1.6469E+09    -3.0884E+09    -5.0264E+08
