           time        x coord        y coord        z coord         radius           dens           temp             ye            |v|             vx             vy             vz
            sec             km             km             km             km         g/cm^3             GK              -           cm/s           cm/s           cm/s           cm/s
     1.0503E-02     6.3971E+01    -2.4787E+01     7.7938E+01     1.0383E+02     1.1339E+08     1.2090E+01     7.4628E-02     4.6466E+09     1.4601E+09     4.3467E+09     7.5213E+08
     1.0644E-02     6.5711E+01    -1.8517E+01     7.9094E+01     1.0448E+02     1.0817E+08     1.1873E+01     7.6464E-02     4.7036E+09     9.9964E+08     4.5100E+09     8.8574E+08
     1.0786E-02     6.6801E+01    -1.2052E+01     8.0441E+01     1.0525E+02     9.7425E+07     1.1496E+01     7.8513E-02     4.7656E+09     5.4207E+08     4.6249E+09     1.0136E+09
     1.0927E-02     6.7248E+01    -5.4596E+00     8.1943E+01     1.0614E+02     8.5282E+07     1.1032E+01     8.0730E-02     4.8195E+09     9.0976E+07     4.6904E+09     1.1042E+09
     1.1069E-02     6.7064E+01     1.1981E+00     8.3540E+01     1.0714E+02     7.3886E+07     1.0639E+01     8.3078E-02     4.8680E+09    -3.5110E+08     4.7178E+09     1.1475E+09
     1.1210E-02     6.6259E+01     7.8646E+00     8.5175E+01     1.0820E+02     6.3839E+07     1.0167E+01     8.5589E-02     4.9069E+09    -7.8329E+08     4.7034E+09     1.1584E+09
     1.1352E-02     6.4858E+01     1.4483E+01     8.6800E+01     1.0932E+02     5.5382E+07     9.7867E+00     8.8088E-02     4.9336E+09    -1.1964E+09     4.6494E+09     1.1364E+09
     1.1493E-02     6.2883E+01     2.0997E+01     8.8381E+01     1.1048E+02     4.8680E+07     9.4183E+00     9.0498E-02     4.9496E+09    -1.5922E+09     4.5565E+09     1.0963E+09
     1.1634E-02     6.0367E+01     2.7352E+01     8.9894E+01     1.1168E+02     4.3407E+07     9.0957E+00     9.2805E-02     4.9509E+09    -1.9616E+09     4.4250E+09     1.0409E+09
     1.1776E-02     5.7345E+01     3.3495E+01     9.1321E+01     1.1292E+02     3.9426E+07     8.8699E+00     9.5025E-02     4.9388E+09    -2.3089E+09     4.2554E+09     9.7582E+08
     1.1917E-02     5.3847E+01     3.9370E+01     9.2654E+01     1.1417E+02     3.6598E+07     8.6834E+00     9.7224E-02     4.9125E+09    -2.6345E+09     4.0454E+09     9.0909E+08
     1.2059E-02     4.9905E+01     4.4919E+01     9.3893E+01     1.1543E+02     3.4732E+07     8.5502E+00     9.9298E-02     4.8723E+09    -2.9369E+09     3.7951E+09     8.4334E+08
     1.2200E-02     4.5550E+01     5.0084E+01     9.5041E+01     1.1669E+02     3.3723E+07     8.4864E+00     1.0122E-01     4.8200E+09    -3.2168E+09     3.5034E+09     7.8142E+08
     1.2342E-02     4.0815E+01     5.4808E+01     9.6105E+01     1.1792E+02     3.3395E+07     8.4809E+00     1.0302E-01     4.7602E+09    -3.4752E+09     3.1712E+09     7.2498E+08
     1.2483E-02     3.5732E+01     5.9037E+01     9.7093E+01     1.1912E+02     3.3563E+07     8.5174E+00     1.0472E-01     4.6971E+09    -3.7081E+09     2.8035E+09     6.7362E+08
     1.2624E-02     3.0339E+01     6.2722E+01     9.8010E+01     1.2025E+02     3.4098E+07     8.5863E+00     1.0637E-01     4.6348E+09    -3.9132E+09     2.4038E+09     6.2408E+08
     1.2766E-02     2.4678E+01     6.5825E+01     9.8855E+01     1.2130E+02     3.4782E+07     8.6703E+00     1.0800E-01     4.5776E+09    -4.0870E+09     1.9810E+09     5.7107E+08
     1.2907E-02     1.8795E+01     6.8318E+01     9.9622E+01     1.2225E+02     3.5431E+07     8.7494E+00     1.0961E-01     4.5279E+09    -4.2262E+09     1.5424E+09     5.1218E+08
     1.3049E-02     1.2742E+01     7.0186E+01     1.0030E+02     1.2308E+02     3.5755E+07     8.8010E+00     1.1127E-01     4.4880E+09    -4.3283E+09     1.0992E+09     4.4625E+08
     1.3190E-02     6.5694E+00     7.1429E+01     1.0088E+02     1.2378E+02     3.5661E+07     8.8112E+00     1.1296E-01     4.4590E+09    -4.3940E+09     6.6012E+08     3.7392E+08
     1.3331E-02     3.2980E-01     7.2058E+01     1.0136E+02     1.2436E+02     3.5013E+07     8.7830E+00     1.1479E-01     4.4405E+09    -4.4245E+09     2.3234E+08     2.9689E+08
     1.3473E-02    -5.9307E+00     7.2093E+01     1.0172E+02     1.2482E+02     3.3950E+07     8.7071E+00     1.1664E-01     4.4319E+09    -4.4228E+09    -1.8026E+08     2.1814E+08
     1.3614E-02    -1.2167E+01     7.1558E+01     1.0197E+02     1.2517E+02     3.2585E+07     8.6034E+00     1.1843E-01     4.4306E+09    -4.3913E+09    -5.7205E+08     1.3904E+08
     1.3756E-02    -1.8337E+01     7.0483E+01     1.0211E+02     1.2542E+02     3.1216E+07     8.4953E+00     1.2019E-01     4.4330E+09    -4.3309E+09    -9.4377E+08     6.1909E+07
     1.3897E-02    -2.4403E+01     6.8897E+01     1.0215E+02     1.2561E+02     2.9966E+07     8.3985E+00     1.2192E-01     4.4366E+09    -4.2432E+09    -1.2958E+09    -1.0082E+07
     1.4039E-02    -3.0326E+01     6.6827E+01     1.0209E+02     1.2573E+02     2.9018E+07     8.3298E+00     1.2360E-01     4.4386E+09    -4.1283E+09    -1.6287E+09    -7.2780E+07
     1.4180E-02    -3.6066E+01     6.4298E+01     1.0195E+02     1.2581E+02     2.8462E+07     8.2957E+00     1.2527E-01     4.4362E+09    -3.9855E+09    -1.9446E+09    -1.2043E+08
     1.4321E-02    -4.1581E+01     6.1331E+01     1.0177E+02     1.2588E+02     2.8574E+07     8.3225E+00     1.2687E-01     4.4247E+09    -3.8087E+09    -2.2476E+09    -1.3967E+08
     1.4463E-02    -4.6822E+01     5.7948E+01     1.0158E+02     1.2597E+02     2.9596E+07     8.4404E+00     1.2846E-01     4.3988E+09    -3.5936E+09    -2.5342E+09    -1.1378E+08
     1.4604E-02    -5.1728E+01     5.4176E+01     1.0148E+02     1.2613E+02     3.2323E+07     8.7395E+00     1.3003E-01     4.3498E+09    -3.3312E+09    -2.7971E+09    -1.0043E+07
     1.4746E-02    -5.6224E+01     5.0053E+01     1.0159E+02     1.2644E+02     3.7549E+07     9.1562E+00     1.3175E-01     4.2814E+09    -3.0207E+09    -3.0283E+09     1.8743E+08
     1.4887E-02    -6.0253E+01     4.5626E+01     1.0202E+02     1.2697E+02     4.4090E+07     9.6808E+00     1.3343E-01     4.2140E+09    -2.6800E+09    -3.2257E+09     4.1238E+08
     1.5029E-02    -6.3793E+01     4.0937E+01     1.0274E+02     1.2768E+02     5.0609E+07     1.0027E+01     1.3506E-01     4.1635E+09    -2.3258E+09    -3.4010E+09     5.9911E+08
     1.5170E-02    -6.6837E+01     3.6019E+01     1.0369E+02     1.2852E+02     5.5121E+07     1.0282E+01     1.3675E-01     4.1311E+09    -1.9773E+09    -3.5523E+09     7.3292E+08
     1.5311E-02    -6.9392E+01     3.0902E+01     1.0480E+02     1.2943E+02     5.7451E+07     1.0424E+01     1.3850E-01     4.1121E+09    -1.6380E+09    -3.6811E+09     8.2242E+08
     1.5453E-02    -7.1475E+01     2.5617E+01     1.0600E+02     1.3039E+02     5.8013E+07     1.0459E+01     1.4001E-01     4.1054E+09    -1.3096E+09    -3.7908E+09     8.7691E+08
     1.5594E-02    -7.3103E+01     2.0190E+01     1.0727E+02     1.3137E+02     5.7037E+07     1.0414E+01     1.4181E-01     4.1075E+09    -9.9203E+08    -3.8804E+09     9.1100E+08
     1.5736E-02    -7.4291E+01     1.4648E+01     1.0857E+02     1.3237E+02     5.5091E+07     1.0309E+01     1.4344E-01     4.1180E+09    -6.8865E+08    -3.9530E+09     9.2633E+08
     1.5875E-02    -7.5052E+01     9.0841E+00     1.0986E+02     1.3336E+02     5.2358E+07     1.0164E+01     1.4516E-01     4.1316E+09    -3.9783E+08    -4.0056E+09     9.3119E+08
     1.6013E-02    -7.5411E+01     3.5415E+00     1.1114E+02     1.3436E+02     4.9296E+07     1.0005E+01     1.4673E-01     4.1472E+09    -1.2482E+08    -4.0414E+09     9.2259E+08
     1.6152E-02    -7.5397E+01    -2.0813E+00     1.1241E+02     1.3537E+02     4.5843E+07     9.8363E+00     1.4843E-01     4.1655E+09     1.4587E+08    -4.0623E+09     9.0968E+08
     1.6288E-02    -7.5020E+01    -7.6192E+00     1.1364E+02     1.3639E+02     4.2344E+07     9.6711E+00     1.5014E-01     4.1835E+09     4.0648E+08    -4.0657E+09     8.9809E+08
     1.6420E-02    -7.4327E+01    -1.2966E+01     1.1482E+02     1.3739E+02     3.9381E+07     9.4477E+00     1.5157E-01     4.2010E+09     6.4914E+08    -4.0549E+09     8.8575E+08
     1.6551E-02    -7.3326E+01    -1.8257E+01     1.1596E+02     1.3841E+02     3.6665E+07     9.2449E+00     1.5304E-01     4.2143E+09     8.8041E+08    -4.0292E+09     8.6632E+08
     1.6682E-02    -7.2021E+01    -2.3530E+01     1.1709E+02     1.3946E+02     3.4155E+07     9.0659E+00     1.5452E-01     4.2241E+09     1.1057E+09    -3.9883E+09     8.4472E+08
     1.6815E-02    -7.0407E+01    -2.8796E+01     1.1820E+02     1.4056E+02     3.1781E+07     8.9026E+00     1.5585E-01     4.2292E+09     1.3238E+09    -3.9312E+09     8.2411E+08
     1.6949E-02    -6.8492E+01    -3.4004E+01     1.1929E+02     1.4169E+02     2.9664E+07     8.7405E+00     1.5723E-01     4.2316E+09     1.5392E+09    -3.8580E+09     8.0813E+08
     1.7084E-02    -6.6267E+01    -3.9161E+01     1.2037E+02     1.4288E+02     2.8018E+07     8.5772E+00     1.5858E-01     4.2260E+09     1.7492E+09    -3.7647E+09     7.9098E+08
     1.7221E-02    -6.3725E+01    -4.4256E+01     1.2144E+02     1.4411E+02     2.6726E+07     8.4550E+00     1.5983E-01     4.2087E+09     1.9491E+09    -3.6496E+09     7.7098E+08
     1.7361E-02    -6.0858E+01    -4.9263E+01     1.2251E+02     1.4539E+02     2.5809E+07     8.3723E+00     1.6108E-01     4.1796E+09     2.1467E+09    -3.5063E+09     7.5302E+08
     1.7503E-02    -5.7683E+01    -5.4096E+01     1.2356E+02     1.4670E+02     2.5368E+07     8.3417E+00     1.6231E-01     4.1339E+09     2.3398E+09    -3.3270E+09     7.3870E+08
     1.7644E-02    -5.4240E+01    -5.8643E+01     1.2460E+02     1.4801E+02     2.5654E+07     8.3886E+00     1.6339E-01     4.0613E+09     2.5268E+09    -3.0951E+09     7.2791E+08
     1.7785E-02    -5.0545E+01    -6.2832E+01     1.2562E+02     1.4928E+02     2.6566E+07     8.5074E+00     1.6434E-01     3.9671E+09     2.6970E+09    -2.8195E+09     7.1744E+08
     1.7927E-02    -4.6621E+01    -6.6610E+01     1.2663E+02     1.5048E+02     2.7852E+07     8.6719E+00     1.6527E-01     3.8643E+09     2.8471E+09    -2.5165E+09     7.0260E+08
     1.8068E-02    -4.2503E+01    -6.9951E+01     1.2761E+02     1.5160E+02     2.9305E+07     8.8407E+00     1.6612E-01     3.7661E+09     2.9742E+09    -2.2072E+09     6.8244E+08
     1.8210E-02    -3.8219E+01    -7.2865E+01     1.2856E+02     1.5263E+02     3.0481E+07     8.9411E+00     1.6702E-01     3.6877E+09     3.0818E+09    -1.9140E+09     6.6166E+08
     1.8351E-02    -3.3796E+01    -7.5379E+01     1.2948E+02     1.5359E+02     3.1149E+07     9.0048E+00     1.6798E-01     3.6304E+09     3.1720E+09    -1.6451E+09     6.4190E+08
     1.8493E-02    -2.9252E+01    -7.7530E+01     1.3037E+02     1.5448E+02     3.1168E+07     9.0153E+00     1.6891E-01     3.5960E+09     3.2521E+09    -1.4019E+09     6.2410E+08
     1.8634E-02    -2.4602E+01    -7.9355E+01     1.3125E+02     1.5533E+02     3.0688E+07     8.9859E+00     1.6996E-01     3.5780E+09     3.3222E+09    -1.1814E+09     6.0780E+08
     1.8776E-02    -1.9858E+01    -8.0880E+01     1.3209E+02     1.5616E+02     2.9766E+07     8.9205E+00     1.7084E-01     3.5733E+09     3.3852E+09    -9.7796E+08     5.9348E+08
     1.8917E-02    -1.5029E+01    -8.2123E+01     1.3292E+02     1.5697E+02     2.8559E+07     8.8375E+00     1.7196E-01     3.5772E+09     3.4420E+09    -7.8212E+08     5.8081E+08
     1.9058E-02    -1.0125E+01    -8.3098E+01     1.3374E+02     1.5778E+02     2.7314E+07     8.7188E+00     1.7300E-01     3.5897E+09     3.4935E+09    -5.9444E+08     5.7271E+08
     1.9200E-02    -5.1544E+00    -8.3812E+01     1.3454E+02     1.5860E+02     2.6064E+07     8.5822E+00     1.7396E-01     3.6029E+09     3.5344E+09    -4.1629E+08     5.6169E+08
     1.9341E-02    -1.3122E-01    -8.4277E+01     1.3533E+02     1.5943E+02     2.4823E+07     8.4498E+00     1.7499E-01     3.6178E+09     3.5679E+09    -2.4113E+08     5.4778E+08
     1.9483E-02     4.9324E+00    -8.4498E+01     1.3609E+02     1.6027E+02     2.3616E+07     8.3252E+00     1.7608E-01     3.6317E+09     3.5918E+09    -7.1559E+07     5.3229E+08
     1.9624E-02     1.0025E+01    -8.4480E+01     1.3683E+02     1.6112E+02     2.2416E+07     8.2043E+00     1.7707E-01     3.6462E+09     3.6082E+09     9.7372E+07     5.1650E+08
     1.9765E-02     1.5134E+01    -8.4224E+01     1.3755E+02     1.6200E+02     2.1250E+07     8.0901E+00     1.7814E-01     3.6603E+09     3.6160E+09     2.6478E+08     5.0194E+08
     1.9907E-02     2.0248E+01    -8.3733E+01     1.3825E+02     1.6290E+02     2.0129E+07     7.9885E+00     1.7912E-01     3.6728E+09     3.6146E+09     4.2851E+08     4.9023E+08
     2.0048E-02     2.5355E+01    -8.3011E+01     1.3894E+02     1.6382E+02     1.9056E+07     7.8925E+00     1.8017E-01     3.6850E+09     3.6050E+09     5.9269E+08     4.8117E+08
     2.0190E-02     3.0441E+01    -8.2061E+01     1.3962E+02     1.6478E+02     1.8092E+07     7.8032E+00     1.8113E-01     3.6950E+09     3.5861E+09     7.5274E+08     4.7529E+08
     2.0331E-02     3.5493E+01    -8.0886E+01     1.4029E+02     1.6578E+02     1.7233E+07     7.7185E+00     1.8199E-01     3.7018E+09     3.5574E+09     9.0806E+08     4.7232E+08
     2.0473E-02     4.0499E+01    -7.9492E+01     1.4096E+02     1.6682E+02     1.6450E+07     7.6404E+00     1.8295E-01     3.7063E+09     3.5190E+09     1.0630E+09     4.7246E+08
     2.0614E-02     4.5442E+01    -7.7880E+01     1.4163E+02     1.6789E+02     1.5818E+07     7.5737E+00     1.8377E-01     3.7060E+09     3.4687E+09     1.2148E+09     4.7650E+08
     2.0755E-02     5.0303E+01    -7.6054E+01     1.4231E+02     1.6901E+02     1.5322E+07     7.5237E+00     1.8468E-01     3.6994E+09     3.4026E+09     1.3682E+09     4.8571E+08
     2.0897E-02     5.5053E+01    -7.4012E+01     1.4300E+02     1.7017E+02     1.5108E+07     7.5043E+00     1.8547E-01     3.6783E+09     3.3103E+09     1.5228E+09     5.0299E+08
     2.1038E-02     5.9642E+01    -7.1745E+01     1.4373E+02     1.7136E+02     1.5426E+07     7.5499E+00     1.8615E-01     3.6290E+09     3.1696E+09     1.6852E+09     5.3273E+08
     2.1180E-02     6.3988E+01    -6.9240E+01     1.4452E+02     1.7255E+02     1.6398E+07     7.6741E+00     1.8684E-01     3.5462E+09     2.9645E+09     1.8588E+09     5.7658E+08
     2.1321E-02     6.7994E+01    -6.6487E+01     1.4537E+02     1.7372E+02     1.8094E+07     7.8726E+00     1.8736E-01     3.4346E+09     2.6962E+09     2.0316E+09     6.3208E+08
     2.1463E-02     7.1604E+01    -6.3501E+01     1.4631E+02     1.7483E+02     1.9975E+07     8.0788E+00     1.8781E-01     3.3265E+09     2.4099E+09     2.1877E+09     6.8735E+08
     2.1604E-02     7.4822E+01    -6.0312E+01     1.4731E+02     1.7589E+02     2.1488E+07     8.2574E+00     1.8830E-01     3.2434E+09     2.1468E+09     2.3178E+09     7.3357E+08
     2.1746E-02     7.7693E+01    -5.6956E+01     1.4838E+02     1.7691E+02     2.2442E+07     8.3760E+00     1.8877E-01     3.1857E+09     1.9192E+09     2.4238E+09     7.6848E+08
     2.1887E-02     8.0265E+01    -5.3464E+01     1.4948E+02     1.7789E+02     2.2863E+07     8.4322E+00     1.8932E-01     3.1488E+09     1.7229E+09     2.5133E+09     7.9379E+08
     2.2028E-02     8.2577E+01    -4.9853E+01     1.5062E+02     1.7886E+02     2.2889E+07     8.4409E+00     1.8987E-01     3.1262E+09     1.5507E+09     2.5902E+09     8.1178E+08
     2.2170E-02     8.4658E+01    -4.6140E+01     1.5178E+02     1.7981E+02     2.2618E+07     8.4150E+00     1.9048E-01     3.1140E+09     1.3947E+09     2.6594E+09     8.2420E+08
     2.2311E-02     8.6528E+01    -4.2335E+01     1.5295E+02     1.8075E+02     2.2164E+07     8.3673E+00     1.9107E-01     3.1082E+09     1.2500E+09     2.7215E+09     8.3196E+08
     2.2453E-02     8.8197E+01    -3.8445E+01     1.5413E+02     1.8169E+02     2.1586E+07     8.3031E+00     1.9169E-01     3.1073E+09     1.1122E+09     2.7784E+09     8.3597E+08
     2.2594E-02     8.9675E+01    -3.4478E+01     1.5531E+02     1.8262E+02     2.0926E+07     8.2308E+00     1.9232E-01     3.1097E+09     9.7869E+08     2.8306E+09     8.3699E+08
     2.2735E-02     9.0966E+01    -3.0441E+01     1.5649E+02     1.8355E+02     2.0215E+07     8.1556E+00     1.9297E-01     3.1146E+09     8.4747E+08     2.8781E+09     8.3592E+08
     2.2877E-02     9.2073E+01    -2.6340E+01     1.5767E+02     1.8448E+02     1.9470E+07     8.0749E+00     1.9362E-01     3.1212E+09     7.1750E+08     2.9211E+09     8.3345E+08
     2.3018E-02     9.2996E+01    -2.2181E+01     1.5885E+02     1.8540E+02     1.8704E+07     7.9975E+00     1.9427E-01     3.1296E+09     5.8769E+08     2.9596E+09     8.3048E+08
     2.3160E-02     9.3736E+01    -1.7971E+01     1.6002E+02     1.8632E+02     1.7931E+07     7.9202E+00     1.9490E-01     3.1390E+09     4.5846E+08     2.9931E+09     8.2740E+08
     2.3301E-02     9.4293E+01    -1.3716E+01     1.6119E+02     1.8725E+02     1.7163E+07     7.8407E+00     1.9556E-01     3.1500E+09     3.2877E+08     3.0224E+09     8.2421E+08
     2.3443E-02     9.4666E+01    -9.4234E+00     1.6235E+02     1.8817E+02     1.6405E+07     7.7589E+00     1.9622E-01     3.1620E+09     1.9909E+08     3.0471E+09     8.2109E+08
     2.3584E-02     9.4856E+01    -5.0995E+00     1.6351E+02     1.8910E+02     1.5658E+07     7.6748E+00     1.9688E-01     3.1750E+09     6.9386E+07     3.0670E+09     8.1824E+08
     2.3726E-02     9.4862E+01    -7.5080E-01     1.6467E+02     1.9004E+02     1.4923E+07     7.5884E+00     1.9754E-01     3.1888E+09    -6.0242E+07     3.0821E+09     8.1580E+08
     2.3867E-02     9.4686E+01     3.6158E+00     1.6582E+02     1.9098E+02     1.4204E+07     7.5004E+00     1.9818E-01     3.2030E+09    -1.8990E+08     3.0921E+09     8.1383E+08
     2.4008E-02     9.4325E+01     7.9931E+00     1.6697E+02     1.9194E+02     1.3504E+07     7.4104E+00     1.9882E-01     3.2178E+09    -3.1951E+08     3.0971E+09     8.1250E+08
     2.4150E-02     9.3782E+01     1.2374E+01     1.6812E+02     1.9291E+02     1.2850E+07     7.3236E+00     1.9945E-01     3.2329E+09    -4.4902E+08     3.0968E+09     8.1249E+08
     2.4291E-02     9.3055E+01     1.6750E+01     1.6927E+02     1.9389E+02     1.2254E+07     7.2274E+00     2.0006E-01     3.2477E+09    -5.7748E+08     3.0911E+09     8.1179E+08
     2.4433E-02     9.2150E+01     2.1114E+01     1.7041E+02     1.9488E+02     1.1695E+07     7.1411E+00     2.0065E-01     3.2609E+09    -7.0330E+08     3.0798E+09     8.0875E+08
     2.4574E-02     9.1067E+01     2.5459E+01     1.7156E+02     1.9589E+02     1.1154E+07     7.0578E+00     2.0118E-01     3.2734E+09    -8.2800E+08     3.0629E+09     8.0548E+08
     2.4716E-02     8.9808E+01     2.9775E+01     1.7269E+02     1.9691E+02     1.0619E+07     6.9795E+00     2.0173E-01     3.2856E+09    -9.5190E+08     3.0404E+09     8.0325E+08
     2.4857E-02     8.8375E+01     3.4056E+01     1.7383E+02     1.9796E+02     1.0089E+07     6.9019E+00     2.0227E-01     3.2976E+09    -1.0750E+09     3.0124E+09     8.0266E+08
     2.4998E-02     8.6768E+01     3.8293E+01     1.7497E+02     1.9902E+02     9.5628E+06     6.8281E+00     2.0279E-01     3.3092E+09    -1.1974E+09     2.9784E+09     8.0395E+08
     2.5140E-02     8.4988E+01     4.2478E+01     1.7610E+02     2.0010E+02     9.0467E+06     6.7557E+00     2.0330E-01     3.3207E+09    -1.3189E+09     2.9386E+09     8.0744E+08
     2.5281E-02     8.3038E+01     4.6602E+01     1.7725E+02     2.0121E+02     8.5675E+06     6.6899E+00     2.0378E-01     3.3322E+09    -1.4397E+09     2.8927E+09     8.1443E+08
     2.5423E-02     8.0918E+01     5.0657E+01     1.7841E+02     2.0234E+02     8.1772E+06     6.6022E+00     2.0425E-01     3.3423E+09    -1.5572E+09     2.8411E+09     8.2123E+08
